#Activity	standing 
#ActivityID	8 
#Date 09-24-16-00
acc_rf_x	acc_rf_y	acc_rf_z	gyro_rf_x	gyro_rf_y	gyro_rf_z	acc_rs_x	acc_rs_y	acc_rs_z	gyro_rs_x	gyro_rs_y	gyro_rs_z	acc_rt_x	acc_rt_y	acc_rt_z	gyro_rt_x	gyro_rt_y	gyro_rt_z	acc_lf_x	acc_lf_y	acc_lf_z	gyro_lf_x	gyro_lf_y	gyro_lf_z	acc_ls_x	acc_ls_y	acc_ls_z	gyro_ls_x	gyro_ls_y	gyro_ls_z	acc_lt_x	acc_lt_y	acc_lt_z	gyro_lt_x	gyro_lt_y	gyro_lt_z	EMG_r	EMG_l	act
-7248	-2916	13884	-61	102	-197	-16500	852	-2372	160	23	171	-16148	2440	-1516	262	-37	41	-8492	2308	14284	116	-20	-131	-15584	1076	-4472	2	-35	-21	-16232	-496	-1232	88	-153	214	127	127	8
-7256	-3004	13976	-48	146	-196	-16460	828	-2488	168	0	162	-16140	2508	-1632	254	-1	37	-8508	2228	14408	100	-79	-172	-15584	1060	-4412	-43	-40	3	-16208	-456	-1128	54	-200	159	127	127	8
-7232	-2988	13900	-53	137	-246	-16452	880	-2436	171	-8	165	-16140	2528	-1608	229	-24	59	-8540	2252	14380	119	-62	-150	-15584	920	-4508	10	-49	-8	-16240	-520	-1056	47	-185	233	127	128	8
-7308	-3032	13936	-40	153	-181	-16524	832	-2516	142	1	144	-16092	2532	-1668	216	-31	34	-8536	2240	14324	112	-100	-133	-15596	1028	-4372	15	-24	-33	-16216	-468	-1064	9	-143	223	127	129	8
-7296	-2960	13904	-100	125	-177	-16476	912	-2436	118	15	165	-16128	2488	-1752	195	-1	38	-8448	2280	14336	143	-40	-155	-15688	1024	-4416	-32	0	17	-16252	-384	-1048	85	-111	163	127	126	8
-7240	-2972	13988	-58	141	-196	-16484	828	-2484	63	-39	151	-16024	2500	-1696	174	-26	-7	-8516	2220	14256	123	-21	-166	-15624	1016	-4416	-108	20	-10	-16284	-452	-1240	19	-93	164	127	127	8
-7292	-2940	13960	-61	117	-182	-16460	864	-2500	68	-27	157	-16056	2524	-1672	113	-12	29	-8524	2224	14288	122	-22	-177	-15592	988	-4520	-23	-36	-4	-16232	-452	-1432	25	-154	142	127	126	8
-7268	-2940	13956	-74	129	-195	-16436	820	-2428	41	-31	167	-16088	2500	-1556	84	-41	23	-8552	2272	14324	97	-23	-176	-15524	952	-4512	19	-15	-21	-16196	-460	-1388	46	-122	149	127	126	8
-7264	-3044	13928	-114	148	-233	-16456	816	-2352	36	-54	153	-16064	2396	-1608	110	-74	76	-8520	2232	14356	128	-68	-141	-15636	1036	-4464	9	-39	-33	-16220	-496	-1288	-53	-208	195	127	124	8
-7208	-2916	13940	-84	139	-212	-16452	840	-2404	99	-39	179	-16144	2464	-1620	191	-68	33	-8428	2268	14312	110	-52	-108	-15596	1016	-4388	-67	-4	-40	-16308	-528	-1180	10	-222	152	127	128	8
-7260	-3024	13888	-71	148	-201	-16488	884	-2548	130	-18	148	-16112	2484	-1648	253	-23	28	-8460	2252	14292	117	-131	-150	-15648	976	-4368	-71	-1	-51	-16384	-544	-1128	48	-272	124	127	124	8
-7272	-3012	13872	-86	126	-205	-16528	900	-2556	144	-5	154	-16124	2428	-1668	250	23	37	-8524	2304	14376	121	-31	-173	-15668	984	-4540	0	-54	-6	-16464	-524	-1156	312	-556	48	127	127	8
-7236	-2984	13980	-89	136	-210	-16428	900	-2512	104	-35	150	-16068	2516	-1684	237	-17	49	-8408	2268	14428	139	-20	-137	-15672	924	-4436	143	-60	16	-16220	-440	-1240	401	-631	34	127	126	8
-7244	-2976	13952	-78	142	-178	-16460	840	-2568	101	-44	144	-16104	2520	-1712	240	-43	32	-8492	2340	14316	120	-21	-136	-15584	1052	-4388	87	-38	-47	-16184	-520	-1236	371	-613	65	127	126	8
-7252	-2988	13912	-60	139	-194	-16496	884	-2560	114	-38	151	-16084	2536	-1756	241	-71	37	-8448	2276	14352	111	-35	-155	-15572	964	-4568	-1	-48	-9	-16148	-448	-1132	105	-555	143	127	128	8
-7268	-2964	13952	-95	137	-234	-16472	836	-2616	62	-76	148	-16060	2480	-1664	197	-35	38	-8536	2256	14244	107	-4	-173	-15636	964	-4516	12	-62	14	-16200	-516	-1136	-3	-493	92	127	125	8
-7228	-3000	13948	-59	109	-237	-16528	824	-2456	58	-88	156	-16112	2472	-1716	180	-54	26	-8408	2312	14336	79	-12	-127	-15588	1084	-4512	-74	-65	-43	-16244	-464	-1092	8	-442	147	127	122	8
-7304	-3036	13944	-61	80	-209	-16480	836	-2544	73	-108	174	-16108	2420	-1744	210	-76	30	-8464	2280	14268	97	-56	-121	-15532	940	-4488	-93	-56	-69	-16256	-528	-1184	-52	-414	138	127	128	8
-7284	-3012	14052	-90	133	-213	-16504	900	-2528	53	-78	127	-16084	2516	-1592	191	-106	23	-8512	2332	14364	116	-29	-143	-15668	980	-4440	1	-67	0	-16172	-512	-988	-145	-326	210	127	128	8
-7276	-2952	13916	-92	140	-213	-16496	928	-2488	43	-78	158	-16048	2508	-1608	169	-67	18	-8368	2296	14328	108	-49	-119	-15720	1080	-4332	-103	-41	-40	-16288	-484	-1120	-31	-273	130	127	129	8
-7228	-2936	13940	-97	153	-182	-16540	852	-2444	35	-59	140	-16076	2492	-1684	125	-56	23	-8452	2268	14280	112	-44	-169	-15640	968	-4460	-137	-76	-15	-16128	-472	-1148	-17	-207	169	127	126	8
-7280	-2940	13968	-88	160	-187	-16544	900	-2516	35	-103	158	-16084	2572	-1520	152	-29	0	-8492	2308	14244	153	-48	-152	-15588	964	-4472	13	-76	-32	-16172	-508	-1020	55	-92	245	127	125	8
-7260	-2956	13896	-119	164	-208	-16452	852	-2476	46	-73	139	-16080	2540	-1652	166	-34	-2	-8484	2312	14456	174	-29	-148	-15604	1004	-4380	82	-78	-65	-16236	-472	-1132	24	-156	153	127	123	8
-7280	-2956	14064	-105	155	-208	-16472	924	-2432	95	-70	132	-16024	2492	-1552	166	-53	27	-8516	2348	14336	120	7	-187	-15592	1084	-4360	-11	-78	-72	-16260	-480	-1132	-39	-177	231	127	123	8
-7316	-2964	14000	-129	143	-210	-16484	932	-2428	96	-47	146	-16096	2472	-1444	165	-46	13	-8432	2284	14412	123	28	-139	-15576	956	-4420	-97	-68	-52	-16080	-496	-1120	29	-201	150	127	127	8
-7336	-3004	14080	-101	100	-198	-16448	876	-2436	75	-35	113	-16092	2568	-1616	216	-53	-13	-8508	2264	14260	112	-19	-164	-15516	1000	-4604	12	-58	-42	-16168	-412	-1092	94	-79	153	127	125	8
-7260	-2956	14000	-89	121	-198	-16500	928	-2500	108	-24	130	-16064	2540	-1712	202	-59	11	-8512	2324	14292	74	-36	-155	-15568	1052	-4480	11	-59	-64	-16296	-408	-1188	104	-166	149	127	125	8
-7284	-2948	13980	-100	160	-224	-16476	860	-2364	170	-38	124	-16116	2452	-1684	240	-89	5	-8500	2348	14384	89	-18	-174	-15536	1116	-4428	24	-59	-75	-16252	-500	-1228	-43	-334	138	127	122	8
-7244	-2940	13952	-134	164	-189	-16488	912	-2524	172	-47	117	-16052	2532	-1568	247	-71	10	-8496	2252	14332	98	-75	-144	-15640	968	-4460	-36	-31	-68	-16200	-612	-1052	-90	-321	148	127	125	8
-7260	-3024	13992	-133	170	-206	-16516	856	-2440	138	-71	122	-16104	2504	-1624	259	-25	-12	-8488	2252	14288	113	-70	-183	-15564	980	-4460	36	-35	-48	-16280	-428	-948	32	-265	156	127	124	8
-7276	-2908	13956	-77	143	-184	-16452	856	-2556	92	-33	99	-16104	2580	-1688	249	-83	-33	-8548	2308	14348	83	-26	-150	-15588	1048	-4448	17	-19	-44	-16308	-408	-1176	214	-230	83	127	130	8
-7300	-2932	13968	-62	125	-205	-16496	856	-2476	108	-35	91	-16068	2532	-1520	246	-96	-4	-8556	2340	14332	87	-75	-192	-15560	964	-4396	0	-37	-84	-16220	-480	-1312	135	-297	103	127	122	8
-7248	-2936	13964	-88	125	-229	-16424	860	-2400	95	-101	85	-16068	2508	-1656	204	-38	-11	-8504	2228	14312	98	-76	-149	-15660	1024	-4504	55	-38	-75	-16208	-492	-1136	-9	-316	181	127	126	8
-7316	-3020	14032	-74	127	-254	-16428	812	-2504	93	-58	107	-16048	2544	-1640	218	-48	17	-8500	2276	14448	64	-54	-155	-15568	1016	-4408	-25	-91	-81	-16128	-516	-952	-70	-265	152	127	126	8
-7324	-2976	13864	-112	127	-262	-16464	840	-2408	51	-77	93	-16108	2476	-1656	174	-84	-25	-8468	2300	14324	95	-62	-139	-15568	944	-4444	51	-39	-52	-16180	-468	-1036	-25	-302	127	127	126	8
-7240	-2980	13916	-140	176	-234	-16500	828	-2488	66	-55	67	-16104	2496	-1632	162	-103	-19	-8476	2284	14464	93	-107	-133	-15640	1056	-4344	8	-52	-84	-16296	-460	-1000	29	-282	120	127	128	8
-7268	-3016	13884	-72	166	-211	-16436	812	-2496	95	-30	111	-16080	2468	-1580	185	-90	-27	-8436	2332	14332	85	-53	-184	-15652	964	-4544	-55	-91	-47	-16196	-680	-1096	13	-262	125	127	123	8
-7240	-3036	13896	-94	165	-234	-16408	916	-2480	88	-76	115	-16144	2496	-1568	184	-84	-11	-8516	2280	14360	81	-40	-165	-15584	916	-4576	10	-115	-79	-16036	-580	-1112	23	-249	144	127	124	8
-7256	-3008	13900	-125	154	-220	-16472	852	-2516	100	-65	74	-16096	2448	-1652	200	-75	-19	-8544	2212	14292	99	-76	-146	-15576	964	-4516	66	-74	-69	-16244	-564	-1032	110	-240	139	127	122	8
-7296	-2968	13932	-119	146	-227	-16488	800	-2372	140	-34	108	-16152	2440	-1564	244	-111	-14	-8484	2252	14332	119	-31	-148	-15596	952	-4308	117	-72	-43	-16292	-484	-1040	156	-283	127	127	127	8
-7284	-2964	14012	-104	160	-206	-16500	840	-2460	166	-34	114	-16172	2408	-1584	298	-55	-8	-8464	2320	14364	117	-37	-143	-15612	1068	-4476	53	-79	-85	-16204	-552	-968	62	-259	146	127	123	8
-7264	-2988	13988	-65	132	-236	-16484	824	-2476	177	-71	96	-16180	2364	-1576	347	-87	21	-8508	2236	14324	109	-79	-135	-15640	956	-4352	-7	-90	-64	-16192	-608	-968	87	-250	154	127	127	8
-7200	-2976	13896	-86	110	-239	-16484	896	-2388	188	-53	126	-16136	2480	-1476	341	-70	16	-8448	2260	14312	106	-9	-162	-15632	892	-4436	98	-90	-94	-16292	-524	-932	34	-304	167	127	127	8
-7228	-2936	13972	-82	143	-222	-16464	840	-2496	207	-70	77	-16136	2520	-1528	324	-75	18	-8460	2292	14332	156	-7	-177	-15592	1052	-4460	118	-109	-80	-16236	-456	-940	225	-224	136	127	127	8
-7260	-2956	13948	-76	147	-223	-16520	824	-2508	141	-35	122	-16104	2544	-1472	307	-72	-22	-8516	2268	14332	109	-7	-181	-15624	1048	-4524	130	-133	-53	-16244	-452	-1056	168	-207	120	128	125	8
-7188	-3008	13956	-114	150	-203	-16492	768	-2460	141	-36	81	-16124	2544	-1568	260	-85	12	-8452	2224	14344	141	-47	-123	-15580	1000	-4324	70	-108	-113	-16180	-440	-1004	86	-138	121	127	127	8
-7228	-3008	13932	-98	125	-212	-16488	828	-2512	90	-40	101	-16164	2496	-1576	227	-96	-42	-8456	2332	14336	119	-56	-175	-15548	968	-4184	-11	-139	-78	-16280	-520	-788	-40	-264	159	127	127	8
-7244	-3016	13924	-119	157	-250	-16520	836	-2520	58	-54	73	-16124	2408	-1552	181	-80	-34	-8472	2320	14320	109	-27	-110	-15660	948	-4296	-45	-68	-90	-16228	-520	-840	-31	-272	123	127	126	8
-7292	-2972	14048	-117	171	-221	-16496	808	-2604	62	-73	85	-16140	2496	-1624	113	-36	-28	-8476	2320	14340	84	-84	-162	-15596	980	-4368	-24	-42	-102	-16196	-560	-908	29	-236	174	127	128	8
-7280	-2984	13908	-126	157	-230	-16528	828	-2460	77	-67	122	-16108	2392	-1656	131	-73	-11	-8516	2332	14328	78	-59	-156	-15652	976	-4364	11	-21	-76	-16212	-572	-872	76	-174	150	127	126	8
-7244	-2976	13976	-122	172	-223	-16452	780	-2504	32	-84	129	-16088	2424	-1708	113	-52	25	-8436	2260	14264	80	-95	-174	-15600	932	-4372	-12	-16	-82	-16248	-520	-924	-58	-221	128	127	127	8
-7256	-3088	13936	-119	148	-234	-16492	776	-2552	-24	-57	103	-16064	2396	-1476	132	-135	7	-8496	2336	14348	59	-96	-166	-15640	888	-4448	-68	-12	-69	-16360	-436	-940	-121	-317	121	127	126	8
-7308	-3028	14120	-117	151	-211	-16472	812	-2532	2	-61	124	-16144	2420	-1444	82	-140	-19	-8540	2236	14292	56	-113	-180	-15604	924	-4348	-79	-16	-76	-16200	-552	-1080	-89	-363	118	127	125	8
-7224	-2992	14000	-79	124	-198	-16452	860	-2284	-8	-54	140	-16172	2396	-1344	44	-139	15	-8472	2260	14420	86	-117	-178	-15636	940	-4468	-71	-14	-65	-16308	-488	-1012	-304	-451	114	127	129	8
-7224	-2964	13972	-74	92	-217	-16428	880	-2304	-1	-12	136	-16180	2444	-1460	70	-187	-11	-8536	2400	14296	128	-63	-72	-15632	900	-4320	6	-12	-19	-16352	-456	-860	-464	-562	84	127	125	8
-7320	-3144	13952	-85	156	-206	-16476	812	-2568	112	3	108	-16064	2492	-1560	95	-145	-8	-8596	2504	14352	47	-39	-114	-15612	1028	-4384	-249	9	-55	-16272	-568	-864	-572	-682	64	127	124	8
-7284	-3044	13952	-69	150	-196	-16520	968	-2620	35	-44	122	-16052	2504	-1436	38	-107	24	-8540	2188	14256	66	-109	-176	-15692	888	-4568	-159	-37	-27	-16212	-660	-952	-366	-527	108	127	125	8
-7140	-3048	14004	-63	165	-171	-16516	844	-2316	-22	-9	136	-16088	2592	-1660	52	-66	-23	-8408	2108	14296	96	-48	-173	-15608	924	-4604	-36	-101	-17	-16180	-640	-940	-174	-349	104	127	128	8
-7324	-2948	13968	-72	142	-163	-16476	888	-2584	-8	-67	132	-16068	2428	-1776	65	-79	-22	-8520	2244	14352	127	1	-152	-15564	988	-4424	130	-113	-29	-16156	-588	-1036	-57	-267	132	127	127	8
-7256	-3012	13940	-83	155	-247	-16460	828	-2708	-13	-76	102	-16072	2428	-1828	95	-77	-12	-8476	2240	14316	134	-42	-115	-15640	1012	-4440	18	-141	-57	-16264	-644	-964	-7	-176	147	127	124	8
-7192	-2964	13904	-128	168	-205	-16512	868	-2560	4	-103	151	-16128	2348	-1872	183	-117	3	-8516	2208	14360	142	-53	-115	-15644	932	-4416	-57	-137	-73	-16260	-560	-824	41	-196	184	127	126	8
-7228	-2952	13860	-119	152	-193	-16508	868	-2496	5	-149	144	-16088	2452	-1760	153	-66	24	-8496	2292	14324	148	-27	-100	-15684	864	-4372	38	-161	-47	-16184	-540	-804	86	-137	175	127	126	8
-7212	-3020	13976	-134	135	-257	-16476	864	-2464	7	-221	174	-16148	2508	-1532	157	-63	22	-8520	2264	14376	145	16	-112	-15556	976	-4284	49	-145	-56	-16220	-492	-712	96	-122	167	127	125	8
-7220	-3008	13984	-80	166	-226	-16480	828	-2392	-17	-191	152	-16120	2436	-1460	189	-105	20	-8472	2304	14288	108	-17	-123	-15552	1068	-4292	-55	-86	-44	-16240	-364	-704	-58	-141	169	127	128	8
-7276	-2904	13824	-117	152	-227	-16476	832	-2264	27	-186	105	-16156	2464	-1448	190	-63	5	-8472	2380	14404	105	-18	-159	-15604	1072	-4276	-183	-120	-81	-16240	-464	-808	-16	-197	214	127	126	8
-7276	-3060	13876	-105	167	-243	-16460	876	-2372	53	-157	144	-16160	2488	-1248	138	-69	-7	-8456	2308	14260	103	-83	-140	-15608	928	-4364	-118	-62	-79	-16232	-640	-756	30	-153	252	127	125	8
-7264	-3036	13880	-122	176	-223	-16512	852	-2344	1	-113	145	-16184	2432	-1244	145	-55	33	-8472	2276	14284	141	-23	-115	-15652	860	-4308	58	-77	-34	-16344	-660	-796	99	-124	232	127	126	8
-7288	-2892	13888	-126	131	-259	-16464	840	-2316	21	-98	120	-16136	2412	-1132	138	-123	12	-8476	2272	14452	107	5	-160	-15660	976	-4276	47	-44	-9	-16336	-488	-692	156	-102	170	127	127	8
-7196	-2940	13856	-92	134	-210	-16420	816	-2276	56	-65	140	-16092	2424	-1256	134	-88	-4	-8404	2252	14304	114	-10	-137	-15600	968	-4428	-27	-27	-25	-16236	-432	-724	36	-127	200	127	123	8
-7204	-3004	13940	-93	134	-203	-16428	804	-2272	63	-31	117	-16156	2344	-1272	136	-73	-10	-8512	2340	14404	116	-29	-118	-15588	992	-4288	-78	-41	-12	-16248	-464	-644	33	-99	234	127	121	8
-7304	-3004	14044	-70	102	-192	-16476	756	-2452	108	-21	136	-16168	2452	-1448	154	-6	18	-8532	2280	14372	138	-57	-175	-15684	1012	-4356	-59	-11	-44	-16328	-572	-752	14	-145	196	127	125	8
-7284	-3036	13856	-71	117	-199	-16444	896	-2484	79	4	152	-16032	2392	-1528	207	28	44	-8440	2276	14360	115	-71	-144	-15664	940	-4304	6	-67	3	-16280	-460	-768	133	-61	242	127	125	8
-7320	-2952	13980	-96	115	-209	-16508	840	-2328	102	10	178	-16100	2392	-1620	279	32	29	-8472	2284	14416	138	-64	-152	-15660	964	-4332	6	-15	-35	-16192	-540	-892	206	-35	234	127	126	8
-7260	-2956	14012	-64	132	-217	-16508	864	-2448	139	-38	165	-16076	2416	-1632	307	-9	68	-8460	2340	14356	131	13	-172	-15600	984	-4436	-11	-29	-8	-16288	-556	-688	61	-87	235	127	125	8
-7228	-2960	13872	-85	149	-168	-16460	840	-2344	125	-7	184	-16092	2424	-1552	312	13	70	-8400	2260	14416	140	-9	-183	-15604	1012	-4340	23	-61	-13	-16264	-476	-820	136	-57	176	127	121	8
-7260	-2916	13872	-84	98	-176	-16404	896	-2388	113	-43	187	-16144	2516	-1460	220	12	66	-8488	2280	14316	124	-65	-182	-15624	992	-4360	55	-16	5	-16300	-488	-780	141	-71	186	127	126	8
-7276	-2980	14048	-76	153	-188	-16516	844	-2344	77	-47	158	-16108	2528	-1480	245	17	48	-8480	2288	14260	134	-40	-202	-15620	952	-4432	16	-17	46	-16200	-500	-936	112	-42	200	127	125	8
-7300	-2984	13944	-91	135	-199	-16480	900	-2420	40	12	122	-16168	2496	-1520	210	-8	29	-8472	2296	14348	98	-14	-168	-15600	1048	-4468	-48	-5	-41	-16288	-492	-896	-1	-67	204	127	123	8
-7256	-2992	13912	-83	131	-212	-16480	876	-2436	61	-2	141	-16084	2444	-1380	164	-6	38	-8452	2324	14296	131	-51	-172	-15676	960	-4444	-112	-11	-59	-16224	-500	-932	-127	-69	179	127	130	8
-7228	-2952	13904	-66	121	-216	-16464	832	-2344	36	-7	158	-16096	2504	-1544	121	87	17	-8428	2332	14328	135	-13	-134	-15612	1020	-4348	-113	27	-27	-16228	-500	-952	-111	-46	190	127	123	8
-7260	-3068	13868	-57	138	-177	-16416	892	-2476	40	-11	149	-16124	2424	-1428	85	76	17	-8432	2348	14252	118	-19	-201	-15680	1004	-4396	-51	-26	-26	-16208	-592	-832	-16	26	168	127	127	8
-7204	-2992	13980	-88	139	-207	-16520	808	-2416	18	10	132	-16128	2448	-1608	105	70	11	-8484	2232	14320	139	6	-175	-15644	956	-4436	5	-37	-52	-16224	-616	-928	-1	-12	191	127	125	8
-7248	-3012	13932	-108	156	-199	-16456	860	-2480	-6	13	162	-16124	2372	-1496	129	66	26	-8464	2228	14276	132	-39	-126	-15628	900	-4332	49	-27	-30	-16276	-544	-860	41	5	169	127	127	8
-7216	-2992	13908	-53	109	-188	-16472	848	-2252	36	-4	154	-16064	2408	-1552	171	47	43	-8516	2284	14340	157	-4	-155	-15652	912	-4284	17	-49	-13	-16276	-472	-836	99	21	175	127	123	8
-7208	-2944	13892	-74	140	-173	-16464	916	-2436	77	-9	131	-16176	2476	-1508	237	44	12	-8440	2264	14296	100	16	-160	-15636	1064	-4300	-47	-1	-37	-16336	-456	-912	8	-93	179	127	123	8
-7280	-2992	14072	-103	124	-228	-16464	872	-2468	69	-1	146	-16116	2472	-1540	236	43	40	-8484	2336	14300	132	-14	-190	-15608	964	-4352	9	-32	-6	-16292	-412	-844	85	-47	213	127	128	8
-7300	-2968	13956	-52	120	-239	-16424	844	-2340	87	5	152	-16080	2484	-1460	220	59	42	-8492	2260	14392	121	-30	-162	-15580	996	-4340	50	23	-58	-16304	-456	-788	-27	15	177	127	127	8
-7288	-3040	13948	-93	116	-226	-16436	812	-2380	111	-8	181	-16088	2544	-1392	245	43	34	-8436	2344	14328	98	6	-147	-15656	1020	-4380	7	21	-46	-16260	-528	-824	77	-35	208	127	124	8
-7244	-2928	13932	-90	151	-195	-16464	856	-2412	79	14	141	-16144	2504	-1468	220	71	29	-8440	2308	14324	104	-28	-152	-15568	968	-4208	28	2	-51	-16256	-404	-816	74	10	168	127	127	8
-7252	-2944	13904	-76	98	-183	-16436	852	-2340	123	52	122	-16068	2492	-1532	205	38	45	-8516	2272	14344	115	-48	-159	-15664	1088	-4364	-8	36	-15	-16312	-512	-900	115	-60	175	127	125	8
-7312	-3032	13960	-91	133	-172	-16484	932	-2332	60	-3	157	-16096	2540	-1540	183	82	65	-8496	2340	14376	107	7	-214	-15652	916	-4456	-67	47	-27	-16284	-568	-940	57	-108	216	127	123	8
-7264	-2940	13896	-109	155	-211	-16448	880	-2452	47	36	146	-16064	2504	-1456	155	74	36	-8476	2216	14328	108	-35	-181	-15616	944	-4476	65	20	-45	-16228	-524	-864	96	-10	143	127	127	8
-7172	-3024	13956	-114	147	-181	-16504	872	-2484	71	28	135	-16168	2496	-1564	167	50	24	-8524	2312	14320	115	11	-190	-15620	1068	-4364	-11	-3	-24	-16300	-504	-912	48	-68	156	127	129	8
-7324	-2960	13984	-48	122	-220	-16480	888	-2540	105	3	168	-16124	2440	-1628	193	53	18	-8488	2324	14312	116	-8	-186	-15608	1028	-4516	-26	30	-63	-16248	-492	-928	-20	-63	160	127	128	8
-7200	-3004	13912	-79	146	-222	-16488	812	-2604	79	18	166	-16116	2424	-1572	204	44	9	-8488	2284	14256	148	-88	-172	-15656	1048	-4388	-50	-19	-47	-16244	-516	-956	58	0	190	127	126	8
-7332	-2908	13912	-95	169	-199	-16524	808	-2524	51	-36	177	-16088	2404	-1536	232	50	44	-8496	2328	14312	155	-30	-164	-15620	984	-4472	-13	-1	-46	-16160	-496	-908	120	86	203	127	125	8
-7244	-2916	14016	-58	127	-206	-16424	876	-2452	58	-6	126	-16108	2484	-1548	223	97	36	-8584	2276	14308	104	-36	-158	-15580	892	-4364	29	-30	-14	-16252	-464	-912	85	35	186	127	127	8
-7284	-2960	14072	-74	156	-184	-16492	896	-2348	107	-35	151	-16104	2484	-1504	194	30	46	-8468	2280	14336	145	-51	-138	-15676	1084	-4316	51	1	-60	-16192	-464	-888	33	32	184	127	124	8
-7280	-3084	13936	-67	101	-189	-16484	912	-2380	133	-39	126	-16092	2480	-1284	219	66	20	-8420	2292	14368	125	-57	-159	-15596	992	-4292	-60	17	-47	-16272	-452	-836	-26	20	155	127	126	8
-7324	-3020	13908	-86	152	-179	-16452	908	-2212	72	-5	117	-16116	2528	-1480	231	25	25	-8448	2328	14280	103	-61	-170	-15736	936	-4364	-31	33	-62	-16252	-488	-976	81	-35	130	127	123	8
-7244	-2972	14032	-71	143	-194	-16460	908	-2396	42	-8	156	-16052	2480	-1496	174	38	20	-8484	2276	14408	114	5	-202	-15576	956	-4464	-30	-10	-36	-16168	-504	-1100	145	-22	179	127	128	8
-7268	-2928	14008	-93	126	-200	-16552	828	-2464	49	-5	84	-16156	2508	-1464	121	37	-24	-8484	2272	14336	105	-27	-175	-15524	936	-4532	90	-15	-64	-16208	-476	-1036	74	58	181	127	126	8
-7260	-3000	13980	-76	124	-183	-16500	880	-2424	44	-12	107	-16140	2388	-1548	163	29	14	-8532	2256	14340	120	22	-164	-15692	1048	-4428	31	18	-55	-16268	-492	-1012	90	39	129	126	126	8
-7296	-2988	13860	-81	139	-199	-16500	948	-2384	93	-3	119	-16132	2408	-1640	215	20	16	-8476	2328	14372	126	40	-155	-15628	1004	-4436	4	-10	-63	-16268	-480	-948	25	10	150	126	125	8
-7200	-2996	13996	-72	145	-217	-16532	824	-2540	170	-3	103	-16140	2448	-1552	311	76	16	-8452	2328	14292	158	-3	-167	-15612	1016	-4348	43	-25	-42	-16276	-512	-984	118	33	178	126	126	8
-7240	-2900	14016	-105	117	-215	-16448	860	-2464	157	-25	141	-16144	2444	-1492	378	42	76	-8576	2320	14144	136	-28	-183	-15604	1004	-4436	65	-29	-49	-16240	-528	-864	94	-6	186	126	125	8
-7252	-2976	13936	-85	119	-181	-16488	824	-2428	200	-34	132	-16136	2508	-1496	362	52	51	-8472	2304	14308	127	-45	-156	-15584	916	-4416	107	-47	-41	-16184	-452	-880	185	3	179	126	125	8
-7312	-2976	13892	-86	108	-248	-16440	900	-2268	209	58	78	-16056	2552	-1368	334	21	12	-8500	2284	14368	128	-36	-125	-15596	1020	-4340	106	3	-46	-16232	-476	-704	78	10	170	126	127	8
-7276	-2988	14044	-72	131	-226	-16476	892	-2476	223	71	102	-16112	2584	-1544	335	42	4	-8420	2384	14312	119	-66	-207	-15704	1112	-4256	30	25	-66	-16264	-480	-868	142	14	161	126	128	8
-7256	-3036	13912	-53	114	-193	-16516	856	-2420	153	49	129	-16156	2476	-1332	312	10	36	-8520	2312	14228	91	-62	-182	-15652	1008	-4460	-1	49	-73	-16228	-432	-956	175	22	180	125	123	8
-7264	-3012	13940	-66	104	-210	-16452	908	-2436	98	73	90	-16092	2492	-1540	221	10	-5	-8544	2284	14228	84	-53	-182	-15612	992	-4448	97	53	-57	-16256	-508	-1036	71	48	177	125	123	8
-7340	-3016	13944	-106	159	-201	-16524	896	-2412	78	85	89	-16084	2528	-1576	234	36	-16	-8496	2272	14268	97	-37	-197	-15628	1040	-4488	24	39	-58	-16208	-464	-1088	44	42	191	125	126	8
-7260	-2968	13908	-27	225	-201	-16448	868	-2412	117	94	103	-16080	2516	-1540	165	35	6	-8432	2248	14364	106	-20	-177	-15592	948	-4464	-10	21	-61	-16288	-528	-1020	42	88	162	124	126	8
-7220	-2924	13828	208	467	-144	-16508	892	-2424	97	85	115	-16036	2504	-1648	153	62	-15	-8424	2312	14368	113	-61	-169	-15632	976	-4432	-7	9	-37	-16232	-512	-1004	27	5	178	124	122	8
-7300	-2980	13948	181	478	-147	-16468	924	-2444	48	42	101	-16052	2512	-1672	144	66	-11	-8456	2292	14412	105	-31	-155	-15636	1016	-4340	-37	71	-91	-16300	-500	-992	83	16	166	124	125	8
-7276	-2916	14004	82	453	-161	-16504	876	-2680	27	11	70	-16052	2444	-1796	203	40	-14	-8448	2248	14368	95	-27	-191	-15588	960	-4416	-4	46	-84	-16224	-480	-972	16	8	169	124	128	8
-7320	-2856	13892	60	362	-181	-16500	828	-2496	74	-9	137	-16140	2408	-1708	226	15	-18	-8500	2300	14268	114	-81	-163	-15624	1044	-4480	-45	50	-34	-16204	-576	-972	-79	-2	189	124	128	8
-7288	-2928	14036	-15	301	-221	-16476	880	-2476	64	-4	108	-16040	2468	-1732	227	45	0	-8400	2244	14304	114	-62	-166	-15624	976	-4512	-22	34	-15	-16284	-556	-1084	-54	-13	153	123	123	8
-7328	-2856	13868	-42	208	-214	-16456	776	-2476	42	-25	142	-16124	2432	-1680	180	45	15	-8444	2212	14260	117	-40	-181	-15568	884	-4552	-33	34	-56	-16216	-548	-956	16	-1	174	123	123	8
-7328	-2916	13976	-88	180	-218	-16468	872	-2356	73	3	109	-16096	2372	-1580	124	49	20	-8412	2216	14320	106	-60	-169	-15656	936	-4484	0	14	-85	-16260	-548	-1132	49	60	143	123	123	8
-7288	-2972	13940	-93	121	-201	-16488	776	-2488	47	-3	111	-16052	2376	-1540	86	87	10	-8448	2328	14356	108	-30	-141	-15616	956	-4564	29	2	-49	-16344	-504	-1084	21	-10	148	123	125	8
-7296	-2984	14012	-168	17	-193	-16496	844	-2472	20	7	130	-16192	2536	-1624	150	31	-23	-8472	2172	14356	120	-25	-139	-15636	964	-4456	8	5	-51	-16292	-452	-1064	33	-24	107	122	124	8
-7352	-2936	14032	-207	-37	-192	-16460	912	-2532	57	-5	109	-16084	2456	-1592	127	32	-19	-8520	2324	14292	115	44	-196	-15640	1056	-4452	-28	-31	-119	-16236	-540	-1164	-57	-89	154	122	121	8
-7304	-2916	13960	-243	-4	-220	-16492	884	-2512	63	50	107	-16076	2524	-1532	162	35	15	-8512	2236	14376	124	-46	-180	-15512	952	-4504	-25	-40	-41	-16220	-548	-1104	-9	-71	154	122	122	8
-7280	-2920	13884	-203	-35	-208	-16432	892	-2480	82	43	127	-16144	2452	-1644	168	63	32	-8460	2208	14288	128	-4	-140	-15620	1000	-4392	28	-1	-53	-16208	-560	-1144	-50	-111	177	122	126	8
-7248	-2936	13932	-216	-21	-222	-16444	868	-2464	100	35	139	-16116	2392	-1544	180	-5	20	-8520	2272	14396	103	-29	-169	-15580	956	-4440	25	-19	-40	-16192	-548	-928	22	-72	200	122	120	8
-7264	-2948	13864	-174	23	-239	-16472	744	-2448	114	-47	137	-16172	2476	-1628	238	13	-14	-8464	2220	14372	94	-45	-151	-15620	1028	-4460	-8	-21	-74	-16264	-464	-1148	184	-66	169	122	124	8
-7264	-2916	13856	-179	32	-235	-16468	820	-2548	154	27	111	-16124	2416	-1648	269	28	-1	-8448	2360	14340	129	-25	-166	-15612	996	-4408	70	12	-41	-16252	-520	-1184	169	-71	177	121	119	8
-7240	-2944	13828	-133	50	-199	-16460	864	-2480	123	11	138	-16100	2508	-1672	273	15	45	-8484	2248	14328	99	7	-195	-15668	992	-4520	87	-18	-62	-16220	-448	-1112	137	-60	166	121	124	8
-7272	-2912	13972	-142	84	-237	-16464	872	-2568	102	-25	97	-16012	2520	-1660	232	66	31	-8476	2316	14228	96	-42	-190	-15656	1036	-4600	48	-42	-64	-16188	-460	-1160	91	-29	189	121	127	8
-7288	-3072	13880	-115	116	-198	-16460	924	-2612	65	-2	113	-16048	2480	-1668	208	25	35	-8460	2228	14316	131	-35	-195	-15636	924	-4456	60	-53	-61	-16264	-496	-1112	1	-65	128	122	123	8
-7276	-2996	13860	-107	132	-233	-16416	852	-2448	66	-61	126	-16084	2468	-1428	200	-9	-4	-8488	2308	14256	90	-6	-164	-15652	1000	-4460	-39	-15	-58	-16232	-432	-1080	-25	-31	185	122	123	8
-7272	-2952	13908	-120	86	-189	-16464	876	-2504	57	-53	138	-16120	2464	-1500	193	30	-18	-8524	2296	14272	106	16	-166	-15620	992	-4476	-96	-12	-75	-16308	-548	-1104	6	7	126	122	128	8
-7244	-2964	13940	-87	118	-194	-16496	856	-2516	47	-37	112	-16124	2484	-1640	157	64	18	-8460	2272	14320	158	-31	-129	-15568	1008	-4564	-33	-14	-34	-16204	-456	-1144	72	-51	161	121	122	8
-7300	-2932	13916	-139	137	-184	-16472	856	-2512	36	-40	111	-16096	2516	-1696	185	26	-29	-8496	2376	14292	139	-35	-164	-15588	968	-4448	25	-57	-51	-16208	-484	-1136	35	-15	140	121	125	8
-7268	-2928	13884	-106	156	-179	-16460	836	-2548	90	-43	137	-16088	2456	-1592	180	9	15	-8540	2272	14284	113	25	-183	-15628	1040	-4480	9	-47	-37	-16168	-528	-1108	5	-96	161	121	122	8
-7240	-2992	13976	-94	151	-232	-16420	836	-2468	99	1	131	-16152	2412	-1568	237	34	24	-8480	2232	14372	124	17	-170	-15648	960	-4368	47	-43	-53	-16232	-556	-988	89	-43	181	122	123	8
-7288	-2924	13964	-89	120	-198	-16464	840	-2404	141	-45	95	-16120	2372	-1584	288	15	11	-8460	2308	14280	100	-4	-140	-15628	996	-4476	90	-39	-22	-16224	-548	-1032	56	-63	194	122	127	8
-7216	-2960	13900	-128	128	-178	-16416	856	-2524	174	-11	152	-16100	2452	-1540	369	7	40	-8496	2308	14384	148	-22	-199	-15624	916	-4332	92	-57	-72	-16268	-548	-1004	124	-65	165	122	123	8
-7252	-2948	13960	-111	98	-161	-16544	868	-2604	134	-29	113	-16168	2552	-1676	321	82	39	-8516	2280	14364	135	-32	-179	-15636	964	-4420	62	-18	-59	-16220	-480	-1024	198	-93	136	122	124	8
-7256	-3040	13912	-125	127	-218	-16496	884	-2492	137	27	140	-16036	2524	-1604	299	77	17	-8436	2212	14312	109	-83	-181	-15604	972	-4416	63	-27	-6	-16244	-412	-1160	158	-114	183	122	124	8
-7324	-2988	13904	-111	117	-239	-16368	924	-2460	219	-8	130	-16140	2556	-1668	350	23	20	-8472	2308	14312	173	-52	-174	-15692	1084	-4484	64	-53	-33	-16192	-476	-1048	165	-128	158	123	123	8
-7260	-2936	13844	-102	108	-192	-16444	924	-2524	68	-19	131	-16120	2480	-1600	269	28	25	-8492	2268	14264	99	-15	-182	-15576	1036	-4476	6	-20	-36	-16172	-504	-1124	84	-55	175	122	127	8
-7244	-2960	13904	-80	145	-203	-16428	764	-2532	86	20	131	-16120	2440	-1624	224	4	-11	-8504	2284	14268	98	-24	-157	-15636	1008	-4480	25	-49	-61	-16224	-492	-1104	16	-68	164	123	127	8
-7256	-2912	13896	-90	141	-193	-16492	792	-2572	94	-8	141	-16100	2424	-1608	164	-26	-1	-8448	2268	14344	144	-78	-139	-15588	916	-4536	21	-9	-19	-16248	-516	-948	74	-87	126	123	125	8
-7340	-3012	13916	-51	137	-190	-16460	848	-2468	94	8	128	-16084	2444	-1604	144	-42	17	-8524	2312	14336	116	-22	-170	-15668	1044	-4324	33	-16	-57	-16244	-480	-1116	45	-68	142	123	125	8
-7292	-3016	13984	-108	152	-207	-16476	884	-2528	83	-45	119	-16104	2528	-1620	120	-17	-7	-8452	2268	14364	102	-12	-140	-15624	988	-4356	17	15	-27	-16232	-436	-1096	40	-100	154	124	126	8
-7276	-2976	13936	-90	103	-213	-16492	828	-2572	31	12	117	-16048	2492	-1496	161	-1	-32	-8524	2300	14372	91	-60	-182	-15704	1052	-4452	-51	-5	-3	-16240	-452	-1048	-13	-128	148	124	131	8
-7272	-2952	13928	-73	170	-185	-16464	880	-2572	15	-31	141	-16120	2412	-1620	214	30	-8	-8464	2308	14280	126	-21	-170	-15616	944	-4416	-42	-37	-75	-16200	-472	-1016	-13	-83	157	125	125	8
-7256	-2924	13928	-91	134	-192	-16472	880	-2528	77	-28	116	-16152	2456	-1544	258	-23	-8	-8444	2312	14376	124	-8	-188	-15632	940	-4576	-9	2	-42	-16160	-604	-1228	62	-56	178	125	129	8
-7216	-2968	13956	-92	115	-178	-16552	876	-2524	80	-9	116	-16056	2524	-1524	183	12	7	-8516	2244	14300	129	-6	-182	-15652	992	-4616	42	-51	-67	-16272	-520	-1268	131	-46	137	125	126	8
-7268	-2960	13868	-97	161	-216	-16452	860	-2488	64	-35	101	-16088	2480	-1564	183	-26	31	-8516	2248	14284	156	14	-158	-15624	1028	-4528	35	-12	-35	-16252	-488	-1056	-11	-33	189	126	131	8
-7240	-2976	13876	-129	157	-167	-16504	772	-2492	59	-26	120	-16068	2508	-1640	161	42	9	-8520	2276	14312	149	-7	-160	-15620	992	-4364	-22	-21	-87	-16192	-488	-1188	-34	-100	132	126	133	8
-7312	-2944	13972	-83	139	-197	-16444	848	-2552	38	-41	84	-16148	2520	-1584	158	15	-3	-8536	2232	14404	91	-54	-173	-15592	948	-4420	-33	-62	-44	-16272	-520	-1108	-20	-87	172	127	127	8
-7320	-2908	14000	-65	133	-251	-16524	800	-2544	59	6	129	-16104	2444	-1628	168	-36	-13	-8528	2332	14452	119	-22	-162	-15608	960	-4560	0	-85	-51	-16188	-484	-1032	30	-3	181	128	130	8
-7280	-2924	13928	-86	133	-214	-16488	812	-2544	98	-25	118	-16112	2428	-1684	184	-43	-4	-8552	2248	14372	147	-49	-177	-15592	992	-4388	11	-22	-86	-16140	-512	-1116	21	72	181	128	128	8
-7264	-2976	13900	-60	149	-176	-16464	868	-2432	118	-11	107	-16120	2460	-1588	209	-84	32	-8496	2236	14328	124	2	-204	-15560	952	-4288	-24	-27	-74	-16164	-528	-996	-2	35	154	129	129	8
-7296	-2936	13840	-82	110	-214	-16472	792	-2492	74	30	127	-16120	2520	-1576	185	-45	41	-8444	2304	14344	112	-67	-151	-15568	944	-4320	-23	18	-34	-16216	-560	-1072	-45	-8	192	129	131	8
-7256	-2980	13868	-89	140	-206	-16532	832	-2616	45	21	101	-16112	2476	-1552	190	1	-16	-8464	2276	14284	129	-27	-148	-15624	1000	-4440	-48	19	-55	-16320	-528	-1068	-28	-12	221	130	130	8
-7216	-3020	13860	-39	162	-182	-16532	864	-2356	39	12	118	-16100	2452	-1624	164	-42	-15	-8472	2348	14248	156	-36	-171	-15664	1020	-4360	-5	-31	-76	-16228	-416	-1192	101	-7	193	131	133	8
-7256	-3016	13956	-88	134	-208	-16456	836	-2516	43	5	144	-16132	2404	-1584	120	-10	-9	-8484	2260	14264	97	-47	-178	-15584	988	-4580	7	-13	-53	-16168	-584	-1276	21	74	230	131	131	8
-7280	-2928	13892	-46	111	-204	-16432	824	-2576	74	-43	131	-16172	2428	-1656	133	19	16	-8496	2224	14284	79	-25	-146	-15636	928	-4588	24	-45	-52	-16208	-492	-1232	-14	86	197	131	135	8
-7280	-2960	13896	-118	159	-185	-16480	816	-2572	29	-32	133	-16116	2420	-1744	141	60	18	-8480	2304	14316	110	16	-147	-15624	996	-4408	-9	-32	-63	-16180	-536	-1120	30	79	160	132	132	8
-7320	-3028	13876	-102	121	-209	-16476	812	-2504	40	-56	117	-16096	2448	-1652	152	-7	-1	-8484	2228	14428	133	50	-162	-15676	1000	-4472	-41	-45	-16	-16208	-568	-1164	-18	-41	211	132	132	8
-7328	-2920	13832	-151	133	-213	-16492	828	-2548	48	-17	110	-16104	2464	-1540	177	-27	-9	-8500	2240	14260	160	-20	-129	-15616	944	-4536	45	-55	-56	-16232	-460	-1168	-72	-23	200	133	133	8
-7280	-2964	13908	-123	116	-198	-16440	852	-2508	49	-66	141	-16080	2404	-1560	199	-35	26	-8504	2224	14396	151	-57	-165	-15688	1004	-4436	-1	-81	-17	-16252	-392	-1152	1	-2	209	133	136	8
-7284	-2956	13932	-99	138	-211	-16460	768	-2508	99	-64	104	-16136	2476	-1708	247	-38	-4	-8568	2260	14252	179	-21	-176	-15564	1100	-4536	-22	-58	-42	-16212	-532	-1328	0	-38	205	134	135	8
-7232	-2976	13832	-86	115	-212	-16460	872	-2456	98	-52	118	-16088	2548	-1636	231	-46	-3	-8476	2336	14384	118	-25	-159	-15600	952	-4332	30	-98	-59	-16200	-512	-1152	62	-19	158	134	136	8
-7236	-2964	13948	-129	138	-188	-16452	880	-2472	127	-38	138	-16096	2492	-1592	251	-12	2	-8464	2252	14244	116	-40	-148	-15616	876	-4564	49	-115	-62	-16260	-500	-1168	115	-34	177	134	133	8
-7288	-2944	13836	-135	112	-179	-16504	844	-2364	118	-30	96	-16160	2512	-1520	285	-22	11	-8500	2244	14324	110	-22	-169	-15536	1008	-4460	110	-95	0	-16256	-468	-1144	76	13	200	134	131	8
-7276	-2940	13932	-110	92	-181	-16480	856	-2540	121	-45	155	-16116	2460	-1464	332	-24	-14	-8472	2260	14324	159	-92	-155	-15592	980	-4276	90	-74	-47	-16252	-408	-1040	14	-94	179	135	136	8
-7268	-2952	13932	-105	66	-184	-16484	904	-2488	129	20	118	-16136	2416	-1632	304	-12	-35	-8476	2304	14284	113	-46	-168	-15592	1072	-4328	31	-18	-47	-16268	-472	-1096	-39	-165	169	135	133	8
-7236	-2940	13932	-114	140	-227	-16508	844	-2440	165	-43	107	-16120	2552	-1592	235	-15	10	-8464	2312	14388	97	-66	-170	-15528	1044	-4356	-51	15	-96	-16296	-400	-1052	35	-181	184	135	132	8
-7224	-2936	13932	-117	159	-214	-16404	852	-2452	132	-18	105	-16140	2532	-1580	237	-18	-26	-8500	2224	14288	86	-91	-186	-15640	936	-4424	73	12	-72	-16328	-436	-1184	110	-182	164	134	133	8
-7244	-3000	13860	-133	155	-169	-16520	864	-2372	105	-36	66	-16124	2416	-1656	241	-61	-35	-8420	2288	14308	89	-56	-192	-15656	1028	-4392	39	5	-50	-16188	-420	-1292	94	-108	141	134	129	8
-7272	-2972	13972	-101	133	-219	-16484	776	-2516	98	-32	101	-16124	2444	-1740	220	-85	-38	-8444	2324	14308	88	-35	-172	-15668	936	-4488	-17	-50	-81	-16236	-508	-1252	55	-127	122	134	132	8
-7216	-2944	13988	-133	107	-204	-16508	812	-2496	34	-14	122	-16096	2392	-1576	158	-57	-23	-8504	2300	14272	123	-42	-160	-15672	1020	-4516	-5	-20	-68	-16272	-528	-1392	-2	-103	142	133	132	8
-7320	-2948	13896	-93	184	-175	-16488	808	-2412	48	-45	105	-16120	2408	-1668	127	12	-32	-8468	2264	14268	88	-33	-127	-15560	988	-4564	17	-47	-74	-16224	-528	-1160	-9	-97	158	133	130	8
-7212	-2988	13996	-88	142	-221	-16508	868	-2544	51	-30	118	-16056	2420	-1668	148	-38	-31	-8552	2268	14312	105	-18	-187	-15632	1008	-4408	5	-31	-50	-16176	-540	-1256	-1	-141	158	132	131	8
-7268	-2896	13960	-116	159	-211	-16456	784	-2516	38	-31	106	-16132	2424	-1660	233	-15	10	-8448	2284	14280	122	-10	-162	-15668	968	-4504	30	-36	-70	-16240	-612	-1200	60	-98	141	132	133	8
-7260	-2976	13888	-102	168	-212	-16472	820	-2560	41	-39	128	-16164	2332	-1628	259	-61	-17	-8492	2220	14348	112	-82	-156	-15596	924	-4492	36	-84	-72	-16212	-576	-1132	7	-153	157	132	132	8
-7244	-3016	14028	-110	116	-183	-16432	784	-2492	109	-36	140	-16132	2388	-1536	349	-75	-3	-8496	2308	14400	93	-51	-158	-15636	936	-4412	42	-92	-31	-16172	-580	-1208	124	-159	125	131	131	8
-7300	-2944	13912	-103	146	-203	-16436	740	-2452	158	-11	118	-16096	2352	-1492	355	-67	0	-8376	2108	14196	126	-28	-186	-15628	1048	-4336	44	-118	-13	-16232	-436	-1312	207	-110	156	131	128	8
-7224	-3040	13928	-82	117	-235	-16424	808	-2492	189	-35	143	-16052	2468	-1536	320	-39	46	-8524	2372	14308	165	-23	-147	-15604	916	-4484	87	-95	-61	-16124	-532	-1268	163	-121	163	130	131	8
-7244	-2912	13900	-88	129	-240	-16436	816	-2452	181	-56	97	-16100	2464	-1508	266	-49	30	-8492	2328	14332	123	-61	-156	-15572	984	-4472	148	-115	-55	-16280	-472	-1244	156	-101	117	129	125	8
-7296	-2944	13908	-75	139	-216	-16464	836	-2504	155	-21	102	-16216	2572	-1560	222	-26	-2	-8468	2264	14296	147	-49	-172	-15660	992	-4436	-62	-102	-55	-16172	-468	-1036	86	-160	141	128	129	8
-7272	-2956	13924	-72	124	-223	-16492	876	-2516	135	-15	95	-16092	2552	-1644	210	-25	-2	-8480	2260	14248	136	35	-148	-15628	992	-4344	-92	-94	-105	-16196	-512	-1288	-8	-142	156	128	127	8
-7308	-2944	13980	-119	183	-186	-16516	876	-2648	76	-22	117	-16044	2540	-1824	187	34	-28	-8448	2292	14280	141	-21	-170	-15604	904	-4436	47	-93	-59	-16228	-488	-1224	9	-54	117	127	129	8
-7248	-2984	13916	-117	189	-191	-16492	920	-2612	38	-55	87	-15952	2516	-1776	88	60	-29	-8352	2212	14176	138	0	-200	-15656	1072	-4200	-17	-101	-72	-16216	-416	-1152	36	-69	146	127	123	8
-7312	-2952	14012	-136	163	-240	-16420	752	-2548	29	-119	127	-16072	2532	-1776	113	29	-30	-8644	2232	14264	156	-56	-107	-15512	920	-4456	-70	-138	-52	-16168	-512	-1240	-79	-39	145	127	129	8
-7308	-2992	13904	-114	114	-260	-16440	752	-2384	94	-108	96	-16096	2252	-1688	121	-24	13	-8512	2256	14256	133	-21	-109	-15484	964	-4252	82	-135	-91	-16180	-512	-1100	28	-87	143	126	127	8
-7224	-3016	13968	-80	89	-245	-16428	792	-2476	127	-102	108	-16128	2376	-1412	221	-62	18	-8604	2276	14220	106	-64	-132	-15584	1004	-4332	5	-86	-20	-16180	-540	-1016	42	-178	169	126	130	8
-7224	-2936	13892	-84	82	-233	-16384	772	-2520	110	-95	156	-16268	2428	-1360	292	-58	31	-8440	2276	14308	111	-87	-125	-15684	876	-4140	36	-36	-92	-16336	-440	-936	85	-193	201	126	125	8
-7164	-2964	13884	-115	105	-189	-16456	924	-2676	185	-48	103	-16104	2692	-1384	294	-67	42	-8480	2316	14288	106	-58	-145	-15692	992	-4384	-24	8	-84	-16220	-440	-932	89	-162	175	125	124	8
-7256	-3052	13968	-123	105	-258	-16476	800	-2400	101	-3	112	-16236	2528	-1292	227	-31	14	-8460	2368	14340	85	-51	-160	-15684	960	-4352	-116	3	-77	-16168	-396	-1132	180	-140	158	125	124	8
-7244	-3008	13952	-102	105	-217	-16528	844	-2388	158	-7	105	-16128	2540	-1604	117	-1	-5	-8444	2300	14340	56	-83	-158	-15644	964	-4448	-87	35	-22	-16220	-424	-1212	-5	-160	121	125	123	8
-7352	-3008	13980	-57	134	-233	-16472	876	-2556	19	18	72	-16116	2556	-1660	29	14	-45	-8476	2276	14344	79	-21	-188	-15724	1004	-4460	-28	18	-70	-16272	-484	-1168	-98	-144	150	125	125	8
-7224	-2952	13860	-77	159	-188	-16428	884	-2536	-128	-34	50	-16084	2484	-1812	-77	46	-36	-8428	2284	14268	85	-29	-175	-15568	872	-4420	-49	8	-63	-16208	-552	-1140	-201	-147	166	124	119	8
-7272	-2944	13904	-110	165	-181	-16376	836	-2568	-84	-52	76	-16080	2408	-1780	-122	12	-30	-8524	2244	14320	59	-75	-154	-15600	948	-4456	-76	3	-59	-16172	-664	-1188	-87	-102	101	124	119	8
-7268	-2960	13920	-85	156	-193	-16540	708	-2576	-76	-74	84	-16032	2368	-1796	-135	-8	-14	-8536	2268	14280	97	-104	-111	-15588	992	-4440	-13	-8	-37	-16188	-684	-1072	-88	-123	165	124	123	8
-7240	-2984	13872	-88	142	-216	-16464	764	-2580	24	-92	116	-16100	2332	-1600	-3	-4	17	-8488	2324	14332	95	-51	-145	-15680	840	-4540	75	-33	-67	-16280	-672	-1216	164	-195	174	124	124	8
-7264	-2948	13976	-43	138	-227	-16464	716	-2428	76	-118	154	-16152	2240	-1616	232	-40	4	-8496	2272	14400	107	-78	-129	-15620	924	-4308	84	-6	-34	-16188	-652	-1228	174	-225	237	124	124	8
-7252	-2984	13912	-47	140	-219	-16440	724	-2416	173	-93	133	-16184	2268	-1416	412	-49	37	-8508	2268	14320	81	-113	-182	-15596	884	-4532	167	-26	-27	-16112	-564	-1148	215	-229	215	124	125	8
-7284	-2980	13832	-76	137	-221	-16472	768	-2408	267	-53	157	-16192	2372	-1444	588	-37	88	-8420	2368	14408	126	-93	-140	-15684	956	-4440	129	-55	-20	-16240	-560	-1228	298	-196	256	124	123	8
-7212	-2976	13964	-54	133	-208	-16508	784	-2428	297	-59	175	-16164	2520	-1540	514	-12	83	-8468	2208	14296	118	-33	-156	-15716	896	-4360	128	-53	16	-16244	-468	-1036	255	-197	230	124	122	8
-7240	-2972	13912	-46	148	-218	-16516	880	-2536	213	-77	144	-16072	2740	-1672	403	2	63	-8532	2264	14332	166	-47	-157	-15700	1008	-4396	43	-38	-71	-16228	-364	-1240	256	-176	216	124	123	8
-7292	-2904	13912	-73	110	-214	-16448	900	-2496	34	-55	157	-16016	2720	-1768	216	-4	17	-8540	2292	14392	133	-65	-160	-15520	992	-4376	-45	-39	-91	-16236	-296	-996	-92	-185	197	124	126	8
-7292	-3064	14016	-93	105	-212	-16604	916	-2532	-14	-56	96	-16140	2592	-1660	125	-32	-19	-8524	2380	14484	141	-18	-143	-15688	1100	-4448	-105	-17	-45	-16216	-388	-1196	-83	-130	188	124	124	8
-7252	-2916	13904	-87	136	-206	-16536	896	-2600	-111	-84	143	-16128	2520	-1696	9	-2	-36	-8480	2360	14396	122	4	-164	-15588	932	-4424	-174	-14	-96	-16228	-408	-1148	-325	-182	164	124	126	8
-7204	-2984	13888	-116	173	-201	-16520	900	-2364	-221	-116	121	-16036	2396	-1464	-80	-19	-66	-8436	2256	14312	98	14	-190	-15576	952	-4472	-94	-24	-51	-16228	-480	-1128	-207	-103	105	124	121	8
-7220	-2956	13996	-103	224	-224	-16496	840	-2448	-49	-83	112	-16188	2272	-1520	-61	-22	-25	-8508	2304	14388	105	18	-177	-15680	908	-4544	-102	-64	-101	-16240	-696	-1252	-77	-103	101	124	123	8
-7260	-2984	13904	-133	160	-233	-16432	828	-2384	32	-46	110	-16196	2348	-1408	-19	-34	5	-8532	2252	14380	87	48	-188	-15612	852	-4428	-4	-50	-81	-16196	-728	-1112	10	-87	148	124	125	8
-7320	-3052	13964	-125	175	-185	-16408	716	-2380	85	-31	103	-16072	2344	-1360	190	-20	1	-8436	2316	14380	123	-31	-189	-15508	884	-4308	185	-25	-36	-16212	-588	-1000	292	-119	163	124	125	8
-7304	-3008	13924	-92	152	-196	-16416	668	-2216	172	35	92	-16168	2300	-1384	323	-38	36	-8448	2272	14280	121	-66	-152	-15584	1040	-4364	106	6	-30	-16216	-596	-1084	475	-126	243	124	126	8
-7232	-3028	13940	-93	122	-188	-16496	768	-2448	219	57	120	-16132	2404	-1492	399	-54	49	-8440	2276	14360	116	-121	-184	-15668	924	-4452	33	-8	-22	-16424	-540	-1088	178	-298	242	124	127	8
-7300	-2956	13888	-78	129	-201	-16504	888	-2504	273	44	144	-16112	2468	-1760	434	-100	65	-8488	2200	14336	83	-77	-188	-15760	900	-4380	36	-6	-14	-16276	-548	-1132	172	-306	270	124	127	8
-7264	-3020	13968	-82	84	-209	-16444	828	-2592	240	28	161	-16032	2356	-1592	416	-84	18	-8536	2184	14260	113	-86	-230	-15576	956	-4480	54	-36	16	-16192	-472	-1272	168	-205	201	125	126	8
-7260	-2976	13968	-55	116	-211	-16540	852	-2556	288	38	170	-16140	2364	-1712	326	-24	63	-8504	2216	14384	142	-33	-128	-15624	972	-4596	79	-96	-29	-16272	-432	-1296	40	-112	160	125	125	8
-7280	-3024	13956	-83	183	-186	-16560	896	-2548	126	-29	129	-16108	2576	-1872	312	40	28	-8512	2296	14316	152	46	-166	-15704	1000	-4552	-37	-108	-32	-16304	-536	-1124	-19	-58	200	125	126	8
-7320	-2960	13860	-110	177	-192	-16532	784	-2596	58	-29	127	-16100	2512	-1604	253	70	32	-8484	2232	14300	133	31	-126	-15560	916	-4336	112	-105	-49	-16184	-540	-1040	10	-53	184	125	126	8
-7292	-2956	13916	-91	163	-190	-16388	812	-2604	7	-54	140	-16048	2508	-1648	158	11	29	-8456	2356	14436	149	22	-147	-15588	972	-4284	66	-111	-30	-16260	-528	-1064	155	-84	162	124	125	8
-7276	-2968	13912	-106	205	-202	-16372	828	-2480	-16	-75	157	-16032	2384	-1580	80	-40	65	-8520	2376	14408	124	7	-171	-15592	1012	-4356	-13	-57	-5	-16176	-632	-948	165	-114	224	125	125	8
-7232	-3012	13912	-106	131	-213	-16480	720	-2344	-25	-50	180	-16108	2232	-1436	76	-36	65	-8524	2256	14288	140	-69	-163	-15588	864	-4376	44	-17	6	-16200	-492	-1036	126	-188	247	125	125	8
-7252	-3000	13904	-42	87	-207	-16408	672	-2452	51	-29	148	-16120	2272	-1504	196	-40	19	-8564	2256	14276	130	-60	-170	-15592	968	-4380	52	-37	-13	-16220	-456	-1036	139	-227	228	125	130	8
-7252	-3068	13896	4	114	-155	-16444	812	-2348	178	-2	200	-16260	2392	-1404	407	-90	68	-8472	2272	14336	119	-99	-169	-15568	996	-4412	32	11	9	-16244	-472	-1144	202	-269	246	125	128	8
-7224	-2944	13928	-66	135	-213	-16460	928	-2288	276	-27	180	-16224	2572	-1448	426	-106	112	-8496	2340	14172	88	-106	-170	-15692	1008	-4440	24	-6	-6	-16204	-412	-1308	244	-253	253	125	125	8
-7176	-2928	13980	-85	138	-184	-16576	948	-2492	220	30	162	-16092	2624	-1416	369	-59	67	-8540	2252	14260	112	-81	-187	-15596	956	-4360	95	-24	-14	-16296	-348	-1160	209	-211	235	125	126	8
-7280	-2956	13916	-68	169	-152	-16476	836	-2592	143	45	157	-16072	2624	-1552	287	-20	57	-8484	2312	14428	101	-62	-182	-15696	968	-4468	33	-15	-28	-16280	-480	-1064	105	-186	225	125	132	8
-7244	-2940	13960	-97	134	-171	-16464	864	-2556	98	-21	152	-16064	2508	-1900	203	-26	21	-8496	2248	14212	109	-97	-171	-15660	940	-4560	-63	-72	-46	-16188	-580	-1364	37	-190	176	125	127	8
-7296	-2912	14000	-108	171	-229	-16500	832	-2716	-35	-55	117	-16052	2464	-1876	39	-24	15	-8492	2204	14308	120	-33	-171	-15592	900	-4516	45	-114	-25	-16168	-408	-1284	7	-80	202	125	126	8
-7184	-2932	13980	-74	137	-190	-16528	800	-2476	-107	-96	152	-16056	2544	-1960	-38	-25	17	-8488	2284	14344	129	-29	-128	-15640	992	-4400	-42	-102	-49	-16204	-384	-1216	-150	-53	145	126	127	8
-7244	-2900	13964	-120	151	-209	-16472	860	-2468	-156	-173	148	-16148	2456	-1780	-101	-82	42	-8444	2308	14236	166	-9	-130	-15664	1044	-4252	-192	-71	-72	-16360	-236	-1020	-337	-9	98	126	129	8
-7212	-3000	13872	-130	146	-233	-16476	800	-2500	-122	-151	192	-16152	2396	-1676	-123	-62	51	-8456	2328	14324	130	8	-115	-15692	1084	-4288	-278	-48	-102	-16200	-384	-936	-352	-86	120	126	125	8
-7288	-2940	14004	-119	150	-181	-16428	824	-2504	-130	-133	172	-16144	2456	-1448	-54	-81	34	-8464	2296	14384	71	18	-160	-15584	996	-4292	-278	-45	-61	-16196	-496	-968	-337	-114	170	126	129	8
-7228	-3000	13856	-134	162	-228	-16540	784	-2252	-130	-113	162	-16124	2396	-1332	-167	-20	27	-8512	2284	14332	109	-71	-162	-15620	888	-4280	-196	-28	-42	-16264	-504	-832	-354	-67	221	127	127	8
-7224	-3004	14056	-110	140	-207	-16420	840	-2232	-132	-100	187	-16164	2472	-1140	-109	-17	-13	-8440	2268	14316	97	-31	-148	-15616	956	-4180	-134	14	-34	-16288	-544	-988	-206	-120	148	127	126	8
-7280	-2956	13988	-116	146	-177	-16416	840	-2220	-99	-23	121	-16208	2468	-1248	-2	-24	34	-8420	2332	14308	83	-77	-179	-15576	948	-4400	-153	51	-48	-16152	-512	-1048	-48	-100	127	127	128	8
-7236	-2976	13904	-98	100	-198	-16512	900	-2236	-79	-19	129	-16104	2400	-1288	0	-19	-8	-8524	2260	14256	67	-62	-164	-15600	952	-4364	-69	20	-26	-16260	-428	-1180	16	-100	142	127	128	8
-7268	-2920	13932	-71	79	-200	-16432	860	-2444	-54	74	144	-16148	2412	-1300	-11	-38	17	-8496	2244	14332	80	-100	-174	-15624	920	-4380	-17	27	-14	-16284	-420	-1032	-111	-173	148	126	125	8
-7276	-3120	13860	-63	104	-177	-16444	684	-2232	-95	70	107	-16212	2388	-1372	3	9	28	-8492	2300	14332	100	-79	-154	-15572	1008	-4376	-53	56	-37	-16328	-500	-1008	-161	-149	152	126	126	8
-7356	-2968	14008	-60	138	-172	-16496	812	-2296	124	134	136	-16124	2332	-1552	93	22	-5	-8504	2280	14376	77	-73	-154	-15644	1000	-4304	-161	41	-32	-16264	-464	-1104	-89	-226	158	126	128	8
-7312	-2820	13872	-29	139	-190	-16472	912	-2620	24	88	130	-16108	2516	-1736	76	8	8	-8484	2240	14352	96	-16	-156	-15608	888	-4464	-91	69	-55	-16212	-456	-1244	45	-276	80	126	127	8
-7268	-2800	13892	-77	165	-172	-16488	860	-2644	33	30	139	-16056	2492	-1792	59	-7	-19	-8532	2244	14324	106	-66	-166	-15580	1048	-4524	-8	32	-23	-16112	-460	-1204	29	-308	130	127	129	8
-7220	-2852	13988	-88	145	-175	-16516	916	-2620	35	7	134	-16064	2456	-1848	70	30	41	-8480	2304	14356	124	-43	-141	-15676	1008	-4632	-61	4	-38	-16184	-448	-1268	-39	-182	136	127	129	8
-7236	-2924	13936	-91	137	-215	-16516	884	-2580	-27	-39	126	-16024	2472	-1780	79	13	34	-8552	2296	14340	87	11	-170	-15616	976	-4408	-75	5	-62	-16228	-504	-1160	-179	-140	176	127	129	8
-7292	-3024	13980	-99	151	-185	-16468	852	-2560	-51	-79	159	-16084	2508	-1680	61	49	28	-8500	2236	14416	115	-27	-159	-15620	1000	-4456	-88	-14	-19	-16196	-508	-1084	-235	-57	147	127	130	8
-7224	-2996	13912	-113	154	-204	-16456	884	-2440	-86	-88	159	-16096	2448	-1636	40	63	21	-8484	2296	14400	136	-10	-127	-15596	1060	-4448	-121	-37	-54	-16216	-484	-1172	-145	-51	119	127	129	8
-7196	-2992	13996	-133	188	-190	-16456	840	-2372	-80	-95	123	-16092	2544	-1416	57	48	4	-8492	2284	14188	136	-20	-131	-15540	952	-4324	-99	4	-32	-16220	-420	-1076	-190	0	98	127	127	8
-7256	-2976	13916	-130	151	-199	-16488	912	-2296	-72	-91	160	-16108	2568	-1412	16	41	9	-8540	2300	14336	130	-14	-145	-15564	1012	-4304	-75	0	-88	-16160	-320	-1308	-221	38	133	126	124	8
-7208	-3040	13912	-87	125	-201	-16548	888	-2324	-92	-47	129	-16108	2504	-1288	-26	57	8	-8524	2256	14320	58	17	-164	-15552	1012	-4400	-119	21	-53	-16248	-352	-1040	-221	58	117	127	127	8
-7280	-3048	13928	-113	182	-188	-16476	868	-2308	-73	-51	120	-16124	2520	-1340	-18	96	-10	-8520	2272	14228	108	-18	-162	-15632	980	-4320	-181	36	-50	-16248	-452	-1088	-284	-34	120	127	131	8
-7344	-2944	13940	-63	119	-162	-16544	908	-2260	-36	14	111	-16048	2472	-1364	-13	75	-3	-8456	2308	14320	100	-7	-150	-15680	960	-4416	-177	54	-53	-16236	-500	-1108	-172	-23	145	126	129	8
-7224	-2968	13924	-101	137	-194	-16492	848	-2196	-30	15	87	-16148	2432	-1508	50	119	10	-8500	2240	14268	62	-43	-171	-15612	944	-4436	-87	85	-46	-16160	-600	-1136	-52	-62	176	127	127	8
-7184	-3060	13928	-105	150	-190	-16480	840	-2328	30	6	106	-16084	2408	-1328	160	91	4	-8556	2172	14288	107	-34	-209	-15628	880	-4532	4	64	-42	-16188	-588	-1124	10	-40	164	126	127	8
-7344	-3000	13916	-78	144	-188	-16428	836	-2380	119	94	106	-16136	2352	-1388	209	102	11	-8464	2256	14384	99	-34	-189	-15616	960	-4524	134	40	1	-16220	-628	-1236	173	-8	188	126	128	8
-7260	-2948	13884	-90	141	-209	-16428	820	-2360	172	105	131	-16136	2360	-1448	271	81	46	-8476	2284	14348	128	21	-200	-15648	892	-4572	83	9	-27	-16312	-648	-1280	306	-32	118	126	127	8
-7220	-2984	13948	-75	140	-181	-16444	780	-2364	297	101	131	-16112	2348	-1528	420	77	77	-8476	2224	14284	138	-53	-160	-15664	944	-4480	163	19	4	-16228	-560	-1180	279	-70	187	126	128	8
-7240	-2972	13992	-54	127	-205	-16472	796	-2384	318	97	137	-16136	2356	-1572	506	109	79	-8500	2256	14288	116	-70	-200	-15596	1008	-4480	167	-7	-18	-16108	-520	-1152	340	-58	218	126	133	8
-7240	-2932	13792	-55	120	-213	-16496	896	-2576	394	121	153	-16100	2480	-1568	565	97	92	-8472	2300	14412	165	-32	-170	-15524	964	-4432	195	7	7	-16320	-504	-1132	236	-116	178	127	126	8
-7236	-2984	13944	-44	117	-192	-16496	904	-2416	368	92	136	-16148	2580	-1432	571	100	119	-8472	2392	14256	119	-13	-168	-15588	996	-4464	221	16	9	-16316	-456	-1100	356	-183	180	127	127	8
-7300	-2984	13836	-56	110	-186	-16472	884	-2444	338	113	181	-16116	2536	-1572	496	107	97	-8520	2248	14424	104	-69	-169	-15604	1052	-4408	169	6	-13	-16332	-472	-1156	295	-214	165	127	128	8
-7292	-2980	13864	-40	127	-216	-16512	776	-2424	332	107	129	-16160	2476	-1708	438	86	75	-8496	2272	14252	80	-37	-204	-15652	972	-4516	160	-22	-43	-16252	-532	-1092	342	-181	190	127	129	8
-7232	-2904	13984	-51	133	-217	-16440	860	-2456	299	98	146	-16120	2452	-1696	424	91	73	-8488	2248	14300	126	-38	-130	-15608	980	-4388	152	22	14	-16288	-380	-1252	415	-122	215	127	128	8
-7244	-2968	13900	-44	124	-207	-16444	864	-2484	304	109	149	-16124	2488	-1676	380	54	76	-8372	2224	14344	156	-50	-162	-15652	1044	-4532	159	42	16	-16288	-540	-1144	227	-235	185	127	126	8
-7324	-2948	13936	-45	131	-196	-16424	856	-2488	270	68	145	-16052	2468	-1688	343	19	89	-8508	2296	14292	139	-58	-159	-15644	968	-4420	32	45	13	-16272	-464	-1324	207	-319	145	127	127	8
-7260	-2940	13936	-56	121	-160	-16460	952	-2596	252	70	199	-16072	2448	-1828	300	61	101	-8276	2444	14184	84	16	-160	-15564	964	-4492	72	13	41	-16116	-416	-1120	130	-280	182	127	128	8
-7252	-2948	13932	-82	144	-179	-16516	864	-2628	199	-10	151	-16028	2564	-1704	356	49	70	-8508	2252	14360	114	-65	-137	-15576	1096	-4536	68	25	20	-16128	-544	-1188	50	-206	215	127	127	8
-7256	-2912	13940	-45	132	-160	-16468	796	-2672	196	-6	155	-16072	2400	-1648	368	66	49	-8432	2240	14384	102	-37	-139	-15568	964	-4352	20	26	6	-16220	-472	-1016	-20	-188	217	127	127	8
-7256	-2892	14040	-64	124	-210	-16520	820	-2612	220	-20	149	-16064	2476	-1820	345	100	66	-8512	2392	14404	103	-77	-158	-15644	1032	-4408	46	49	2	-16276	-484	-952	-2	-153	225	127	125	8
-7268	-2952	13884	-53	125	-200	-16476	832	-2692	157	-27	169	-16124	2508	-1812	361	111	72	-8500	2256	14324	125	11	-184	-15676	1140	-4340	-52	78	-7	-16340	-504	-1060	49	-149	236	127	127	8
-7280	-2992	13976	-87	145	-205	-16480	804	-2536	160	-57	154	-16104	2464	-1672	391	99	113	-8484	2204	14316	155	-30	-171	-15588	888	-4600	-12	78	-19	-16284	-468	-1320	229	-175	199	127	128	8
-7260	-3012	13868	-84	133	-233	-16492	868	-2444	167	-37	171	-16160	2496	-1676	335	37	106	-8448	2236	14340	138	0	-196	-15580	1032	-4696	156	-1	29	-16244	-532	-1272	234	-120	152	127	127	8
-7296	-2952	13960	-99	86	-230	-16448	836	-2460	153	-19	163	-16104	2492	-1548	293	45	94	-8512	2216	14324	119	-47	-155	-15592	972	-4736	171	-32	4	-16216	-592	-1464	295	-93	202	127	128	8
-7300	-2976	13932	-98	113	-171	-16448	880	-2468	119	-9	146	-16168	2600	-1520	261	16	72	-8560	2220	14236	113	-31	-158	-15580	944	-4760	137	-100	-15	-16192	-588	-1356	81	-123	145	127	125	8
-7212	-2932	14008	-71	142	-139	-16556	844	-2332	129	-14	130	-16128	2596	-1516	183	22	40	-8504	2292	14292	94	-22	-114	-15616	1012	-4424	128	-109	-34	-16284	-412	-1148	50	-104	122	127	127	8
-7244	-2848	14036	-59	140	-213	-16508	880	-2548	66	-23	195	-16008	2624	-1584	121	60	40	-8532	2308	14396	77	2	-113	-15612	1072	-4384	-27	-101	51	-16216	-352	-1048	-131	-211	113	127	127	8
-7264	-2888	13888	-31	127	-204	-16412	860	-2560	49	-23	130	-16068	2496	-1824	187	32	53	-8480	2308	14348	96	-40	-119	-15520	1040	-4424	-32	-40	0	-16240	-308	-992	-88	-284	128	127	126	8
-7260	-2964	13996	-82	159	-193	-16424	836	-2560	89	-23	102	-16096	2516	-1860	239	-5	43	-8472	2308	14328	67	-29	-135	-15628	1084	-4336	14	-28	6	-16296	-520	-916	-63	-296	197	127	129	8
-7256	-2984	13968	-122	192	-194	-16548	852	-2492	144	-23	159	-16092	2480	-1800	265	2	46	-8528	2316	14308	71	1	-170	-15548	972	-4436	11	20	-32	-16168	-540	-848	39	-395	170	127	125	8
-7264	-2904	13932	-95	150	-174	-16520	836	-2596	152	-45	168	-16144	2504	-1740	283	-39	28	-8484	2192	14428	116	-122	-148	-15536	880	-4336	195	45	39	-16252	-564	-812	151	-397	145	126	124	8
-7212	-3036	14036	-73	158	-215	-16508	892	-2612	130	-54	108	-16104	2568	-1692	311	32	54	-8444	2200	14280	157	-139	-167	-15652	1064	-4256	253	90	33	-16356	-436	-904	269	-545	122	127	126	8
-7360	-2924	13936	-108	133	-228	-16516	948	-2608	99	-19	123	-16108	2604	-1712	231	-5	37	-8396	2236	14348	124	-108	-164	-15620	1232	-4364	86	141	-7	-16240	-276	-1100	198	-551	112	126	127	8
-7228	-2948	13940	-127	123	-219	-16452	924	-2444	41	-78	112	-16084	2616	-1688	184	35	8	-8636	2568	14304	80	-87	-185	-15584	1156	-4448	-131	128	-28	-16256	-292	-1292	21	-464	212	126	130	8
-7284	-2984	13960	-78	172	-226	-16444	824	-2504	14	-56	90	-16068	2608	-1548	161	-15	-1	-8604	2168	14352	109	-68	-240	-15616	1104	-4808	-61	80	-16	-16140	-308	-1388	2	-289	139	127	128	8
-7232	-2852	13848	-100	132	-236	-16468	876	-2372	7	-55	129	-16040	2580	-1532	70	-67	-16	-8436	2184	14488	108	9	-200	-15588	1024	-4828	-116	40	-45	-16244	-428	-1160	-216	-194	158	127	125	8
-7324	-2920	13880	-130	134	-198	-16448	892	-2444	-54	-57	109	-16172	2536	-1720	-4	-53	-28	-8376	2252	14424	160	-39	-154	-15604	956	-4764	-99	-34	-85	-16160	-488	-1396	-186	-64	105	127	125	8
-7304	-2956	13940	-124	147	-189	-16432	852	-2484	-136	-27	109	-16100	2520	-1620	-51	-28	-60	-8576	2232	14240	97	15	-121	-15520	1040	-4660	-240	-13	-120	-16272	-452	-1132	-405	-72	151	127	129	8
-7276	-2984	13916	-98	110	-184	-16500	884	-2508	-120	-62	84	-16100	2524	-1616	-114	-15	-35	-8416	2320	14300	160	2	-103	-15580	992	-4524	-188	-67	-95	-16324	-444	-960	-412	-77	103	127	126	8
-7268	-2956	13912	-103	192	-191	-16476	904	-2484	-105	-36	91	-16096	2516	-1740	-58	-48	-25	-8480	2316	14328	136	-15	-113	-15616	1052	-4552	-203	-35	-91	-16280	-520	-876	-335	-186	129	127	130	8
-7240	-2972	13924	-111	105	-211	-16496	864	-2484	-75	-73	110	-16080	2464	-1652	-41	-93	-17	-8528	2200	14356	127	-27	-173	-15572	1100	-4512	-177	-20	-66	-16172	-504	-880	-216	-183	126	127	130	8
-7280	-3000	13944	-110	150	-206	-16476	836	-2416	-48	-93	139	-16144	2420	-1616	3	-65	-6	-8472	2260	14396	111	-8	-146	-15528	940	-4436	-90	5	-58	-16272	-620	-908	-222	-217	160	126	124	8
-7228	-3016	14004	-110	131	-249	-16492	768	-2476	-3	-56	105	-16104	2456	-1608	105	-75	-17	-8464	2320	14368	95	-48	-162	-15624	968	-4588	-54	-5	-40	-16252	-656	-1076	-11	-219	162	127	126	8
-7224	-2952	13848	-90	119	-231	-16496	788	-2448	19	-55	127	-16104	2456	-1544	137	-94	12	-8504	2328	14400	92	-64	-174	-15584	972	-4596	-8	46	-64	-16364	-520	-1068	-47	-305	148	127	127	8
-7292	-2988	13876	-96	133	-229	-16480	832	-2612	31	-75	116	-16076	2480	-1556	184	-65	15	-8456	2232	14340	116	-46	-155	-15604	972	-4496	-40	-3	-64	-16196	-440	-1132	-4	-205	120	127	128	8
-7276	-2952	13948	-105	135	-214	-16468	772	-2540	72	-52	135	-16028	2572	-1520	168	-72	15	-8432	2340	14260	86	-79	-146	-15676	1104	-4596	-75	-18	-89	-16220	-496	-1208	-19	-151	163	127	125	8
-7284	-2956	13996	-89	146	-218	-16416	888	-2420	13	-42	100	-16084	2512	-1520	60	-16	-17	-8492	2236	14396	93	-27	-157	-15548	952	-4544	-100	-58	-63	-16248	-540	-1040	-181	-169	149	127	127	8
-7272	-2940	13944	-77	123	-203	-16508	872	-2380	42	-43	111	-16180	2468	-1572	111	-30	2	-8480	2264	14240	120	-61	-149	-15608	964	-4584	-91	-40	-68	-16328	-536	-920	-172	-196	141	127	126	8
-7236	-2960	13980	-111	143	-190	-16460	888	-2392	52	-20	113	-16164	2520	-1600	131	-75	-8	-8436	2304	14324	105	6	-124	-15512	976	-4532	-103	-37	-68	-16264	-572	-1036	-186	-168	169	127	127	8
-7260	-2964	13912	-73	132	-206	-16448	928	-2524	14	-22	89	-16128	2432	-1688	77	-41	24	-8500	2240	14416	133	8	-147	-15624	944	-4504	-125	-32	-69	-16256	-476	-976	-149	-187	170	127	124	8
-7296	-2924	13880	-113	160	-201	-16512	832	-2584	61	-33	126	-16080	2476	-1748	59	-60	6	-8488	2280	14284	73	24	-119	-15544	1020	-4448	20	-43	-65	-16264	-412	-1032	-51	-221	109	127	127	8
-7260	-2916	13980	-71	143	-188	-16468	924	-2536	11	-30	121	-16044	2468	-1692	93	-80	2	-8512	2352	14232	116	-71	-153	-15584	1116	-4396	-16	-63	-74	-16232	-492	-980	3	-229	107	127	125	8
-7264	-2944	13848	-73	171	-221	-16496	832	-2484	36	-47	111	-16108	2448	-1684	143	-59	20	-8520	2272	14288	98	-55	-143	-15592	948	-4520	-60	-44	-65	-16204	-540	-900	-25	-227	163	127	125	8
-7316	-2924	13916	-105	155	-189	-16468	896	-2552	75	-72	122	-16156	2476	-1604	256	-47	25	-8464	2260	14328	131	-87	-151	-15528	996	-4508	81	-32	-83	-16364	-548	-1028	-38	-212	145	127	127	8
-7284	-2992	13968	-77	143	-228	-16380	840	-2544	88	-87	109	-16132	2540	-1608	274	-45	15	-8492	2288	14348	86	-80	-191	-15696	1036	-4396	-24	-1	-66	-16296	-496	-988	-74	-258	97	127	127	8
-7204	-3020	13880	-115	117	-205	-16480	840	-2388	142	-49	169	-16128	2528	-1492	274	-21	26	-8444	2192	14240	85	-17	-152	-15596	972	-4536	50	-21	-46	-16232	-468	-1032	-75	-291	135	127	123	8
-7240	-2968	14048	-91	130	-221	-16476	824	-2468	113	-40	132	-16092	2536	-1392	258	-24	0	-8480	2336	14328	125	-64	-154	-15620	1076	-4452	-19	-20	-43	-16272	-416	-1180	-20	-357	74	127	125	8
-7244	-2968	13956	-89	143	-242	-16400	960	-2464	76	-20	113	-16116	2592	-1552	218	-50	-5	-8504	2348	14308	97	-62	-187	-15648	1120	-4760	-22	-56	-60	-16492	-468	-1148	111	-349	67	127	124	8
-7292	-3004	13984	-101	143	-210	-16500	844	-2480	86	-74	119	-16136	2544	-1580	157	-59	-19	-8504	2220	14384	74	-89	-155	-15600	952	-4600	50	-104	-33	-16324	-516	-1116	-29	-391	62	127	130	8
-7260	-2940	13912	-134	134	-203	-16448	824	-2532	0	-50	105	-16180	2476	-1712	111	-99	-16	-8512	2152	14340	119	-90	-153	-15580	856	-4852	129	-141	-26	-16224	-600	-1264	-301	-469	29	127	125	8
-7268	-3016	13908	-83	142	-220	-16440	848	-2500	48	-31	121	-16068	2388	-1660	115	-83	-15	-8412	2244	14340	139	20	-105	-15596	980	-4596	92	-140	-90	-16204	-508	-1076	-293	-572	-21	127	124	8
-7296	-2956	13912	-115	174	-194	-16520	824	-2472	161	-104	126	-16120	2428	-1728	112	-113	-9	-8516	2208	14404	120	-37	-156	-15608	1092	-4440	-51	-177	-57	-16500	-344	-900	-255	-403	10	127	125	8
-7284	-2960	14052	-106	198	-238	-16460	896	-2552	65	-129	85	-16072	2592	-1828	176	-112	-10	-8532	2152	14352	93	-29	-138	-15604	1112	-4624	-63	-210	-101	-16144	-444	-928	-309	-370	60	127	125	8
-7264	-2944	14032	-136	183	-223	-16464	872	-2652	73	-152	105	-16120	2544	-1820	194	-108	-4	-8536	2200	14348	157	-75	-111	-15532	952	-4556	-13	-203	-91	-16224	-644	-956	-215	-337	96	127	122	8
-7192	-2964	13888	-137	158	-225	-16472	840	-2592	65	-157	125	-16028	2452	-1852	208	-142	-42	-8424	2304	14384	138	-34	-155	-15676	896	-4520	87	-216	-60	-16232	-660	-892	-153	-302	108	127	125	8
-7244	-2996	13916	-114	180	-233	-16484	864	-2520	12	-203	127	-16084	2472	-1652	187	-89	-10	-8476	2288	14304	149	44	-94	-15640	1052	-4520	91	-232	-82	-16300	-552	-896	-179	-302	66	127	123	8
-7208	-2960	13940	-125	165	-209	-16456	780	-2384	28	-209	137	-16180	2452	-1500	161	-133	-19	-8516	2280	14308	143	-6	-96	-15568	1044	-4292	22	-231	-72	-16152	-612	-740	130	-136	71	127	129	8
-7260	-3000	13864	-162	161	-247	-16440	868	-2336	28	-231	168	-16108	2500	-1400	169	-80	-15	-8524	2292	14364	143	-21	-96	-15500	1052	-4536	27	-166	-85	-16252	-536	-712	-85	-225	147	127	131	8
-7284	-2952	13912	-164	158	-235	-16468	828	-2260	28	-219	126	-16168	2484	-1432	133	-104	-11	-8416	2364	14300	68	51	-100	-15632	1008	-4408	64	-203	-85	-16180	-532	-708	-62	-192	144	127	127	8
-7192	-2948	13896	-106	143	-202	-16424	856	-2288	47	-159	128	-16124	2520	-1352	155	-72	8	-8488	2224	14376	109	4	-142	-15612	944	-4280	52	-185	-61	-16252	-504	-596	82	-128	175	127	126	8
-7292	-3032	13920	-89	151	-267	-16440	812	-2256	108	-113	144	-16104	2452	-1280	219	-109	7	-8524	2360	14340	127	-72	-115	-15580	1048	-4252	55	-81	-76	-16168	-508	-604	-6	-158	131	127	127	8
-7228	-2992	13880	-130	154	-227	-16464	820	-2396	155	-33	70	-16140	2472	-1336	245	-111	-4	-8464	2332	14296	100	-74	-131	-15604	984	-4220	36	-64	-42	-16304	-516	-512	20	-226	171	127	123	8
-7244	-2980	13912	-105	117	-214	-16492	808	-2344	180	-46	123	-16048	2424	-1328	251	-77	-32	-8452	2340	14304	106	-48	-184	-15668	1036	-4224	49	-58	-62	-16324	-460	-704	196	-134	130	127	129	8
-7248	-3020	13936	-89	147	-237	-16480	840	-2416	178	-1	90	-16084	2472	-1480	290	-69	-36	-8552	2356	14320	65	-55	-204	-15688	1048	-4476	-51	-15	-76	-16252	-536	-828	326	-140	141	127	129	8
-7300	-2960	13884	-75	111	-233	-16476	796	-2408	133	11	114	-16108	2420	-1464	267	-24	16	-8428	2288	14280	88	-94	-171	-15652	928	-4500	64	-76	-65	-16172	-524	-884	353	-46	211	127	132	8
-7264	-2960	13988	-123	140	-191	-16464	848	-2344	198	54	102	-16100	2412	-1576	313	-9	24	-8492	2260	14404	80	-19	-166	-15600	980	-4500	217	-93	-60	-16252	-592	-860	402	-7	188	127	126	8
-7236	-2988	14008	-58	122	-193	-16512	832	-2540	171	3	86	-16096	2312	-1552	378	45	5	-8384	2332	14396	101	-11	-155	-15604	1016	-4436	168	-80	-82	-16312	-472	-984	361	-50	194	127	133	8
-7308	-2952	13880	-50	89	-201	-16408	832	-2508	213	21	105	-16012	2388	-1548	457	-23	11	-8492	2288	14276	152	-31	-169	-15608	984	-4376	109	-98	-86	-16316	-464	-764	299	-141	176	127	126	8
-7276	-2948	13872	-110	97	-198	-16448	840	-2428	239	-22	142	-16020	2440	-1536	416	43	48	-8472	2244	14316	129	-57	-158	-15652	912	-4348	199	-80	-48	-16180	-576	-808	250	-164	157	127	129	8
-7208	-2932	13972	-76	79	-196	-16500	836	-2380	257	-6	109	-16164	2408	-1468	429	31	21	-8492	2364	14348	132	24	-147	-15680	1036	-4408	55	-71	-49	-16292	-508	-752	224	-68	149	127	126	8
-7256	-2984	13996	-85	140	-216	-16500	836	-2436	297	-14	148	-16096	2484	-1364	443	32	35	-8472	2256	14344	136	-12	-163	-15724	984	-4384	70	-109	-36	-16296	-388	-984	298	-36	191	127	126	8
-7276	-2996	13936	-67	135	-186	-16484	876	-2432	242	25	133	-16112	2504	-1460	416	42	18	-8504	2244	14300	169	-22	-207	-15600	960	-4460	164	-73	-25	-16264	-484	-904	347	-19	142	127	127	8
-7224	-2968	13972	-64	131	-187	-16460	872	-2448	191	88	113	-16044	2548	-1464	367	109	28	-8496	2264	14256	118	-26	-188	-15588	1024	-4440	209	-60	-61	-16164	-436	-1016	258	-61	99	127	127	8
-7296	-2916	14060	-54	114	-228	-16460	964	-2436	194	7	84	-16100	2664	-1628	287	104	-1	-8528	2264	14252	166	-8	-176	-15692	1056	-4488	132	-71	-87	-16244	-336	-872	207	-44	130	127	128	8
-7252	-2972	14020	-107	142	-201	-16504	948	-2456	107	-11	41	-16048	2704	-1740	211	136	-22	-8556	2344	14232	135	-7	-167	-15676	1092	-4364	125	-75	-102	-16224	-280	-792	33	31	84	127	125	8
-7316	-2924	13956	-118	119	-180	-16404	856	-2520	31	-13	57	-16108	2516	-1736	164	63	-56	-8484	2152	14292	141	-36	-201	-15556	968	-4384	-6	-74	-166	-16232	-288	-720	-58	40	95	127	127	8
-7272	-2972	14000	-110	128	-240	-16480	896	-2580	27	-11	52	-16092	2636	-1792	144	74	-67	-8564	2240	14352	80	13	-185	-15556	1096	-4344	-77	-33	-179	-16264	-432	-768	-155	98	109	127	121	8
-7240	-2944	13984	-125	119	-214	-16472	864	-2432	46	-28	46	-16192	2528	-1572	165	55	-104	-8488	2308	14280	75	-49	-196	-15628	1048	-4264	-112	-8	-172	-16240	-360	-696	-289	1	42	127	127	8
-7152	-2964	13992	-151	127	-215	-16504	868	-2524	5	-12	-13	-16140	2556	-1528	119	61	-106	-8516	2312	14372	46	-76	-172	-15688	1028	-4232	-268	56	-205	-16308	-356	-572	-328	7	47	127	130	8
-7216	-2928	13944	-157	133	-232	-16560	956	-2420	-33	-41	15	-16172	2512	-1460	-1	60	-96	-8512	2320	14316	35	21	-207	-15540	932	-4384	-180	63	-194	-16288	-456	-676	-300	-19	25	127	131	8
-7212	-3016	13920	-154	192	-219	-16488	852	-2452	-26	25	-19	-16056	2496	-1632	-26	71	-138	-8528	2300	14416	43	-85	-235	-15588	968	-4264	-113	137	-155	-16180	-580	-828	-247	-63	55	127	129	8
-7216	-2964	13952	-144	182	-248	-16484	836	-2496	-71	-19	5	-16108	2556	-1556	-21	45	-119	-8436	2316	14316	31	-81	-220	-15592	872	-4372	-118	140	-153	-16200	-628	-692	-198	-61	53	127	124	8
-7240	-3012	13860	-162	199	-224	-16484	808	-2468	-120	0	29	-16148	2372	-1712	-86	59	-185	-8532	2232	14312	27	-49	-228	-15676	852	-4476	-58	110	-150	-16368	-744	-852	-71	-43	46	127	127	8
-7300	-2944	14012	-122	184	-194	-16456	780	-2520	-97	-52	5	-16096	2312	-1724	-45	15	-162	-8500	2312	14268	5	-79	-224	-15708	876	-4496	-60	83	-125	-16316	-684	-1088	-163	-94	56	127	124	8
-7304	-3016	13916	-147	177	-226	-16440	704	-2548	-82	-56	30	-16072	2232	-1760	-2	4	-89	-8452	2148	14304	20	-48	-216	-15636	808	-4700	-150	53	-120	-16368	-832	-1224	-124	-161	77	127	128	8
-7304	-2988	13912	-155	172	-212	-16496	700	-2464	-10	-52	59	-16096	2204	-1608	51	-25	-36	-8440	2228	14392	68	-49	-181	-15688	768	-4816	23	-39	-117	-16268	-768	-1252	16	-123	96	127	125	8
-7268	-3056	13916	-126	186	-222	-16492	692	-2396	73	-57	72	-16112	2164	-1608	148	-18	-7	-8492	2232	14412	139	7	-156	-15612	840	-4672	-22	-89	-69	-16244	-912	-1228	15	-78	107	127	123	8
-7244	-2960	13948	-78	183	-186	-16456	724	-2260	123	-72	114	-16120	2232	-1456	289	-88	3	-8576	2292	14300	111	2	-150	-15556	916	-4532	7	-91	-94	-16244	-784	-1080	50	-42	134	127	125	8
-7288	-3012	13888	-85	174	-183	-16516	728	-2404	177	-57	103	-16144	2240	-1412	330	-42	-25	-8440	2216	14256	123	-48	-132	-15532	904	-4440	14	-136	-55	-16304	-752	-964	39	-78	159	127	127	8
-7296	-2976	13972	-73	154	-192	-16444	780	-2392	205	-5	134	-16132	2332	-1500	416	-14	0	-8488	2288	14416	164	-58	-100	-15632	848	-4292	63	-121	14	-16272	-756	-772	79	-257	206	127	127	8
-7284	-2972	13892	-73	137	-227	-16532	708	-2372	304	-40	157	-16176	2356	-1648	458	-39	68	-8472	2216	14212	106	-39	-144	-15656	836	-4244	189	-101	-6	-16252	-712	-748	182	-314	229	127	128	8
-7256	-2968	13940	-79	128	-208	-16492	776	-2396	328	2	180	-16156	2284	-1592	495	-102	75	-8392	2300	14280	140	-66	-135	-15612	960	-4244	234	-119	52	-16204	-588	-676	404	-289	223	127	127	8
-7324	-2992	14012	-28	146	-220	-16548	760	-2492	436	19	144	-16192	2376	-1520	557	-58	104	-8476	2340	14300	139	-76	-146	-15688	1036	-4324	137	-32	6	-16312	-652	-676	446	-267	263	127	123	8
-7216	-3056	14036	-26	137	-247	-16512	760	-2512	331	5	181	-16128	2396	-1448	587	-19	117	-8488	2220	14368	100	-94	-189	-15676	884	-4604	77	-82	6	-16272	-624	-868	543	-187	237	127	127	8
-7332	-3040	13836	-64	168	-211	-16484	808	-2488	364	-3	168	-16172	2488	-1512	556	-57	84	-8464	2248	14380	123	-7	-186	-15636	892	-4544	233	-87	27	-16268	-552	-1132	535	-186	265	127	125	8
-7232	-2920	13868	-68	98	-229	-16440	808	-2528	256	-42	181	-16056	2532	-1736	427	-39	64	-8512	2332	14412	158	22	-150	-15572	840	-4604	257	-66	14	-16292	-552	-968	420	-199	244	127	127	8
-7224	-2928	13996	-61	140	-183	-16440	772	-2488	162	-52	172	-16080	2476	-1768	329	-31	90	-8464	2288	14256	146	1	-145	-15572	1008	-4500	80	-144	33	-16256	-464	-1080	293	-163	262	127	124	8
-7304	-2960	13812	-82	123	-225	-16492	848	-2656	125	20	139	-16072	2440	-1764	232	-76	67	-8480	2316	14340	139	-28	-173	-15612	884	-4424	17	-130	7	-16220	-500	-960	211	-96	267	127	127	8
-7264	-2976	13932	-106	143	-234	-16460	808	-2716	80	-77	202	-16000	2508	-1712	200	-46	89	-8508	2288	14384	152	-2	-115	-15648	900	-4392	-42	-132	-21	-16184	-584	-856	35	-76	273	127	125	8
-7256	-2960	13980	-67	128	-221	-16552	784	-2532	32	-123	169	-16072	2420	-1716	195	-70	36	-8616	2048	14320	204	-34	-145	-15636	944	-4360	-63	-138	29	-16208	-480	-784	-7	-26	221	127	126	8
-7268	-2960	13968	-75	149	-242	-16516	800	-2568	9	-135	185	-16136	2540	-1696	197	-132	44	-8384	2260	14364	173	-50	-73	-15600	980	-4320	-90	-90	-46	-16204	-424	-816	151	44	268	127	125	8
-7196	-2956	13976	-88	128	-205	-16492	840	-2560	-16	-96	201	-16132	2524	-1572	95	-136	45	-8520	2296	14400	172	-36	-109	-15576	992	-4272	-190	-112	-74	-16196	-332	-756	135	119	268	127	129	8
-7248	-2976	13880	-182	138	-224	-16448	804	-2388	-79	-145	204	-16120	2460	-1684	58	-127	16	-8552	2408	14268	124	27	-167	-15636	988	-4196	-159	-93	-40	-16212	-616	-912	167	198	254	127	126	8
-7224	-2992	13868	-108	133	-191	-16432	836	-2396	-132	-172	204	-16184	2508	-1392	-8	-113	20	-8464	2340	14384	120	13	-148	-15600	860	-4444	-71	-95	-59	-16188	-360	-764	91	226	260	127	125	8
-7248	-2960	13948	-116	113	-174	-16520	828	-2348	-148	-126	176	-16176	2548	-1304	-37	-115	-8	-8500	2300	14316	132	-34	-151	-15608	992	-4296	-21	-56	-51	-16404	-376	-784	-127	108	191	127	128	8
-7244	-3004	13988	-109	144	-179	-16484	928	-2336	-174	-91	144	-16156	2624	-1424	-87	-68	-26	-8512	2340	14356	106	13	-139	-15668	1052	-4176	-288	3	-59	-16288	-312	-764	-225	-18	185	127	127	8
-7200	-3016	13948	-95	163	-177	-16496	884	-2316	-134	-57	105	-16028	2592	-1408	-92	-57	-45	-8440	2260	14268	90	21	-204	-15600	940	-4340	-280	27	-63	-16196	-404	-804	-302	-59	194	127	128	8
-7240	-2936	14020	-121	150	-167	-16492	884	-2372	-75	-27	119	-16132	2464	-1448	-64	-61	-45	-8504	2284	14388	100	-45	-193	-15660	980	-4312	-231	23	-120	-16184	-488	-880	-148	-10	132	127	131	8
-7300	-2892	13928	-133	144	-200	-16528	972	-2456	-110	-32	86	-16096	2580	-1412	-101	-11	-67	-8468	2308	14444	82	-93	-172	-15568	988	-4536	-162	74	-53	-16264	-488	-868	-245	-75	146	127	123	8
-7236	-2968	13876	-122	162	-199	-16432	824	-2404	-101	-6	70	-16124	2396	-1428	-45	-34	-29	-8468	2264	14348	89	-94	-203	-15680	956	-4472	-146	57	-86	-16268	-548	-968	-94	-40	98	127	126	8
-7200	-2944	13928	-106	149	-207	-16464	768	-2340	-51	-31	65	-16120	2312	-1500	42	22	-57	-8484	2308	14344	88	-64	-171	-15684	1020	-4364	-173	50	-123	-16224	-656	-1052	-87	-58	149	127	130	8
-7316	-3036	13908	-133	162	-209	-16460	764	-2384	-4	-4	88	-16096	2316	-1612	113	0	-28	-8456	2300	14392	83	-14	-182	-15720	824	-4536	-38	20	-106	-16148	-664	-1060	61	-55	177	127	125	8
-7232	-3032	13824	-128	146	-187	-16504	852	-2500	46	1	75	-16016	2428	-1664	165	5	-21	-8544	2212	14380	120	-4	-192	-15616	872	-4544	189	-16	-106	-16292	-516	-844	86	-9	92	127	128	8
-7256	-2976	13964	-86	128	-214	-16484	848	-2528	32	25	92	-16072	2456	-1600	194	39	-7	-8468	2320	14368	118	-25	-188	-15616	920	-4328	138	-18	-64	-16300	-540	-860	90	-28	103	127	127	8
-7272	-2972	13996	-90	159	-217	-16436	800	-2520	50	-34	87	-16112	2424	-1544	156	3	-26	-8444	2312	14328	91	35	-164	-15632	1008	-4300	-21	11	-102	-16268	-464	-1080	117	-72	65	127	127	8
-7276	-2984	13828	-140	179	-180	-16472	876	-2544	62	-36	65	-16072	2500	-1556	210	40	-9	-8492	2268	14328	66	-27	-169	-15632	920	-4492	-96	-3	-119	-16156	-488	-1028	-6	-70	85	127	126	8
-7244	-2972	13916	-153	152	-218	-16472	892	-2476	35	-59	57	-16128	2540	-1584	186	-21	-52	-8540	2272	14372	98	-79	-136	-15584	948	-4680	18	-41	-87	-16204	-580	-908	-129	-89	125	127	128	8
-7344	-3056	13804	-117	137	-242	-16504	764	-2512	11	-21	11	-16108	2392	-1472	112	54	-55	-8424	2228	14364	108	-47	-158	-15628	944	-4444	-74	-17	-142	-16252	-616	-960	-72	-25	135	127	125	8
-7220	-3028	13840	-128	167	-203	-16516	832	-2528	41	-38	71	-16140	2292	-1580	118	52	-31	-8472	2248	14384	95	-88	-155	-15596	856	-4416	-53	-7	-114	-16156	-616	-952	-68	-74	82	127	126	8
-7228	-2968	13984	-151	145	-222	-16488	880	-2484	92	-57	67	-16088	2404	-1592	44	46	-28	-8496	2300	14396	107	-12	-160	-15684	948	-4428	17	-9	-48	-16200	-556	-900	-73	-59	123	127	123	8
-7264	-2944	13956	-150	170	-224	-16504	848	-2368	40	-87	63	-16188	2372	-1508	22	-9	-20	-8480	2272	14336	74	-50	-161	-15644	916	-4316	-66	26	-89	-16344	-564	-904	-132	-55	125	127	125	8
-7244	-3012	13856	-121	127	-226	-16472	780	-2444	-16	-59	87	-16112	2376	-1604	40	21	-16	-8464	2344	14284	99	-19	-153	-15544	932	-4352	-78	44	-66	-16172	-612	-784	-174	-57	132	127	129	8
-7248	-2984	14008	-83	153	-202	-16500	768	-2476	-51	6	79	-16116	2356	-1620	65	22	-11	-8420	2284	14432	113	-75	-167	-15628	956	-4436	-94	8	-66	-16252	-588	-968	-28	-32	136	127	124	8
-7292	-2992	13952	-113	154	-196	-16476	800	-2372	-48	-64	89	-16084	2356	-1488	75	9	-23	-8428	2240	14248	98	-32	-167	-15652	872	-4468	-40	2	-51	-16276	-648	-1016	-51	-36	96	127	127	8
-7272	-2972	14000	-71	124	-175	-16552	792	-2472	18	-10	87	-16084	2348	-1384	84	10	-2	-8428	2348	14316	103	-35	-200	-15652	920	-4460	-28	-16	-66	-16208	-636	-1156	8	13	139	127	127	8
-7232	-2936	13932	-137	137	-210	-16428	916	-2360	76	-24	109	-16136	2428	-1484	102	77	7	-8508	2220	14368	124	-31	-159	-15624	956	-4476	-89	-28	-76	-16244	-588	-1112	49	93	134	127	131	8
-7196	-2944	13948	-108	153	-234	-16408	784	-2436	-4	0	92	-16108	2396	-1428	117	40	-29	-8564	2228	14316	114	26	-179	-15572	952	-4524	-37	-30	-61	-16276	-636	-1100	27	111	153	127	132	8
-7236	-3024	13876	-103	135	-190	-16428	792	-2420	43	-8	119	-16144	2372	-1388	159	47	4	-8132	1968	14480	134	7	-230	-15728	932	-4588	-84	-74	-94	-16252	-636	-1140	-47	95	173	127	124	8
-7272	-2972	13860	-130	148	-194	-16540	808	-2448	42	-3	135	-16112	2364	-1536	228	12	1	-8604	2220	14380	146	34	-115	-15480	740	-4420	153	-84	-11	-16232	-672	-924	-133	71	157	127	127	8
-7284	-3000	13908	-86	132	-209	-16372	808	-2404	130	10	123	-16112	2340	-1496	240	14	19	-8508	2292	14220	101	34	-133	-15656	1028	-4436	51	-39	-79	-16236	-676	-924	-13	31	131	127	128	8
-7240	-2936	13884	-84	148	-230	-16452	728	-2364	163	19	116	-16176	2284	-1456	287	21	29	-8556	2308	14348	144	-21	-154	-15612	864	-4344	-51	-61	-72	-16208	-504	-872	229	9	167	127	128	8
-7232	-3076	13888	-73	152	-178	-16440	792	-2288	199	52	105	-16100	2368	-1488	356	36	52	-8548	2252	14212	145	2	-174	-15588	864	-4348	118	-36	-29	-16208	-508	-880	195	30	195	127	127	8
-7340	-3012	13844	-93	134	-190	-16532	788	-2372	260	24	102	-16200	2408	-1532	387	50	68	-8520	2356	14324	94	-56	-181	-15712	1028	-4256	191	-19	-11	-16264	-540	-708	204	-40	209	127	128	8
-7264	-3064	14024	-90	116	-203	-16496	748	-2420	278	98	102	-16124	2464	-1572	404	85	53	-8456	2292	14328	117	-32	-202	-15568	996	-4332	108	33	-30	-16188	-552	-924	319	-40	209	127	126	8
-7296	-3024	13904	-71	134	-207	-16468	760	-2444	235	40	110	-16100	2428	-1628	401	71	54	-8532	2248	14328	95	-65	-176	-15572	852	-4400	138	65	-46	-16208	-624	-964	235	-56	231	127	124	8
-7272	-3004	13924	-55	120	-211	-16532	868	-2288	209	128	112	-16152	2408	-1524	362	57	28	-8484	2272	14348	81	-40	-179	-15612	860	-4440	197	55	-5	-16292	-560	-988	297	-22	186	127	126	8
-7288	-2936	13988	-90	130	-233	-16460	696	-2488	215	94	114	-16080	2472	-1516	345	72	29	-8536	2248	14332	75	-108	-178	-15644	1032	-4564	128	69	-48	-16220	-572	-1196	293	-38	209	127	132	8
-7212	-3012	13900	-40	122	-174	-16536	784	-2412	234	92	111	-16140	2400	-1696	308	77	13	-8456	2260	14344	121	-88	-163	-15648	952	-4536	104	102	-19	-16268	-468	-1040	350	6	164	127	129	8
-7304	-2948	13912	-61	140	-200	-16480	756	-2488	171	84	101	-16144	2480	-1720	311	90	47	-8536	2312	14356	134	-20	-147	-15584	980	-4620	70	12	-39	-16132	-508	-1264	215	145	207	127	124	8
-7292	-2932	13872	-66	158	-181	-16432	816	-2548	120	76	122	-16088	2416	-1688	239	98	44	-8464	2240	14336	122	-49	-144	-15588	868	-4512	23	21	-38	-16236	-580	-1300	127	124	204	127	127	8
-7292	-2992	13868	-68	139	-208	-16460	712	-2592	74	17	94	-16008	2416	-1660	199	85	20	-8488	2216	14292	99	39	-147	-15632	848	-4580	94	-38	-54	-16236	-648	-1252	126	166	215	127	126	8
-7284	-2972	13864	-46	98	-193	-16516	740	-2636	82	-18	128	-16064	2400	-1820	227	83	2	-8524	2200	14336	130	10	-179	-15608	1056	-4536	56	-44	-30	-16172	-520	-1112	144	109	148	127	126	8
-7252	-2992	13912	-73	133	-190	-16500	780	-2512	130	-1	167	-16036	2400	-1720	279	26	19	-8488	2232	14312	148	-60	-138	-15592	852	-4456	12	-6	-31	-16164	-536	-988	-5	26	213	127	124	8
-7292	-2992	13956	-69	139	-189	-16492	804	-2592	101	-4	129	-16080	2420	-1636	310	39	43	-8516	2316	14264	145	-20	-137	-15576	976	-4308	60	-5	-45	-16260	-484	-928	-44	49	197	127	124	8
-7288	-2996	13912	-82	124	-244	-16460	728	-2612	151	-34	143	-16048	2408	-1564	356	121	49	-8480	2244	14312	117	-41	-163	-15624	900	-4280	-32	31	-98	-16260	-544	-928	32	83	200	127	124	8
-7304	-3148	13888	-70	142	-214	-16460	840	-2548	97	-47	136	-16152	2420	-1532	279	114	76	-8512	2216	14276	115	-67	-163	-15576	856	-4356	24	7	3	-16236	-568	-936	23	42	221	127	126	8
-7324	-3068	13944	-84	140	-199	-16552	692	-2416	163	-20	160	-16132	2336	-1436	336	89	26	-8504	2264	14396	108	-7	-183	-15660	916	-4380	43	65	4	-16256	-592	-1048	116	55	228	127	126	8
-7252	-2992	13880	-76	109	-204	-16404	876	-2364	108	5	119	-16088	2412	-1424	237	145	47	-8496	2304	14276	136	-48	-167	-15652	944	-4344	11	62	-19	-16192	-532	-1148	84	80	220	127	128	8
-7300	-2916	13936	-76	120	-221	-16556	676	-2388	56	-3	145	-16112	2456	-1584	199	106	43	-8480	2208	14388	101	-22	-190	-15640	896	-4504	43	72	-5	-16340	-480	-1124	70	51	190	127	124	8
-7268	-3068	13868	-50	117	-184	-16452	868	-2480	43	44	125	-16204	2456	-1600	166	123	56	-8516	2268	14288	127	-7	-213	-15588	1060	-4496	-1	38	-17	-16148	-540	-1320	95	101	215	127	125	8
-7260	-3008	13920	-68	121	-193	-16504	800	-2484	-2	84	133	-16060	2436	-1608	155	125	41	-8480	2260	14352	148	-35	-165	-15576	904	-4584	58	34	-2	-16204	-448	-1396	64	142	232	127	128	8
-7244	-2996	13880	-90	130	-188	-16500	800	-2500	13	66	167	-16064	2352	-1676	144	85	40	-8524	2236	14272	137	-28	-167	-15596	952	-4488	35	18	-29	-16252	-452	-1264	-43	142	196	127	127	8
-7316	-2968	13936	-43	150	-174	-16552	784	-2560	-5	40	123	-16144	2348	-1664	209	67	7	-8504	2300	14288	117	39	-136	-15592	888	-4480	-19	-22	-17	-16240	-464	-1220	-30	123	197	127	129	8
-7284	-3044	14004	-63	130	-149	-16404	876	-2396	70	42	167	-16076	2400	-1540	256	66	25	-8488	2248	14316	141	-3	-125	-15652	928	-4488	-26	-4	-30	-16188	-532	-1096	26	121	202	127	127	8
-7244	-2992	13984	-82	134	-205	-16440	848	-2464	153	34	145	-16060	2400	-1636	335	67	56	-8492	2276	14340	132	-16	-160	-15616	904	-4372	12	-5	-44	-16328	-516	-1188	10	113	155	127	124	8
-7280	-2972	13964	-118	162	-180	-16576	816	-2752	235	27	97	-16052	2532	-1744	381	128	15	-8512	2216	14316	172	24	-154	-15592	856	-4512	53	-22	-69	-16200	-512	-1100	76	75	180	127	127	8
-7204	-2992	13952	-118	171	-214	-16472	868	-2328	96	41	131	-16112	2468	-1572	444	60	1	-8464	2260	14292	134	17	-175	-15624	1000	-4344	174	-20	-50	-16240	-436	-1112	104	60	175	127	127	8
-7256	-2920	13908	-106	140	-180	-16444	828	-2384	162	70	130	-16176	2408	-1448	395	49	38	-8484	2272	14392	148	-25	-158	-15628	1028	-4444	99	-13	-79	-16228	-476	-1256	161	51	174	127	126	8
-7228	-2864	13976	-131	160	-197	-16416	796	-2328	118	118	120	-16120	2444	-1344	335	17	46	-8508	2280	14276	123	-37	-167	-15616	928	-4416	87	33	-12	-16304	-508	-1140	166	50	173	127	129	8
-7272	-2864	13960	-112	139	-149	-16472	772	-2340	117	143	107	-16056	2444	-1488	315	53	31	-8480	2296	14320	111	-53	-170	-15572	912	-4460	115	32	-54	-16188	-504	-1136	173	82	197	127	127	8
-7260	-2888	13940	-134	165	-203	-16428	720	-2368	144	98	89	-16096	2368	-1464	293	79	1	-8464	2264	14384	119	-1	-206	-15608	948	-4388	114	30	-34	-16300	-484	-1164	107	58	167	127	129	8
-7328	-3060	13960	-114	159	-164	-16460	720	-2432	231	169	115	-16088	2496	-1532	319	57	0	-8504	2284	14280	78	-14	-199	-15668	956	-4552	44	28	-14	-16192	-512	-1300	121	-1	167	127	125	8
-7284	-2920	13876	-124	135	-128	-16428	784	-2492	165	143	127	-16108	2324	-1540	307	18	10	-8488	2272	14276	93	-37	-174	-15588	872	-4484	-6	67	-48	-16240	-592	-1168	-31	-22	159	127	124	8
-7252	-3060	13920	-83	179	-118	-16472	728	-2452	230	151	63	-16100	2400	-1704	237	-3	24	-8560	2192	14384	105	-52	-185	-15580	868	-4560	-22	43	-30	-16212	-560	-1164	-38	-32	144	127	126	8
-7272	-3000	13912	-75	162	-175	-16432	848	-2580	200	140	132	-16072	2416	-1732	185	59	30	-8552	2252	14348	104	-6	-166	-15616	912	-4604	-51	37	-9	-16216	-552	-1228	61	44	182	127	125	8
-7296	-2964	13784	-89	159	-134	-16496	760	-2596	159	139	108	-16084	2380	-1892	194	67	72	-8412	2272	14376	135	16	-203	-15616	932	-4512	-35	88	-57	-16244	-576	-1240	-9	56	228	126	126	8
-7224	-2944	13952	-64	127	-147	-16424	760	-2680	103	101	122	-16000	2304	-1820	156	45	45	-8500	2280	14324	133	-50	-161	-15636	900	-4464	-7	39	-5	-16196	-524	-1212	75	82	195	126	130	8
-7324	-2992	13924	-62	128	-189	-16456	712	-2700	67	101	138	-16108	2392	-1992	174	33	37	-8456	2340	14332	150	-13	-162	-15640	1008	-4508	-8	76	16	-16252	-536	-1380	9	57	180	126	125	8
-7260	-3048	13928	-78	122	-172	-16492	876	-2608	36	64	153	-16104	2372	-1796	173	60	43	-8524	2236	14288	69	30	-177	-15528	956	-4508	-64	48	-11	-16192	-596	-1204	-109	1	228	126	127	8
-7236	-2972	13960	-69	137	-166	-16444	772	-2680	-26	56	135	-16092	2496	-1836	112	76	50	-8532	2312	14296	114	-24	-150	-15556	980	-4592	-36	76	-5	-16284	-460	-1248	-184	-46	191	126	124	8
-7292	-2952	13984	-43	145	-201	-16420	792	-2640	16	50	135	-16088	2428	-1732	44	72	56	-8496	2332	14276	132	-47	-210	-15596	924	-4556	-93	59	-11	-16252	-500	-1228	-134	30	192	126	124	8
-7272	-2976	13940	-60	143	-190	-16492	760	-2536	15	-7	150	-16060	2440	-1680	52	113	58	-8504	2296	14264	85	-54	-154	-15628	1028	-4484	-195	89	-1	-16260	-548	-1308	-118	-43	255	126	130	8
-7216	-2964	14004	-88	115	-179	-16508	776	-2576	22	11	173	-16132	2456	-1772	89	57	48	-8468	2296	14400	107	17	-178	-15612	908	-4564	-99	79	26	-16240	-520	-1388	-51	-25	195	126	124	8
-7272	-3020	13948	-98	147	-160	-16456	844	-2596	-77	6	153	-16076	2436	-1668	81	59	45	-8484	2180	14292	118	-59	-172	-15588	952	-4656	-42	35	-37	-16256	-544	-1452	-38	-7	187	126	126	8
-7308	-3004	13912	-98	126	-185	-16396	780	-2600	-79	18	152	-16108	2432	-1688	25	116	14	-8596	2280	14284	135	-16	-143	-15560	960	-4648	-40	19	2	-16104	-528	-1432	-107	-12	214	126	125	8
-7252	-2952	13900	-86	154	-196	-16468	820	-2624	-115	-42	184	-16144	2444	-1604	104	82	34	-8580	2268	14364	99	10	-176	-15552	876	-4568	-26	20	-30	-16160	-540	-1324	-85	-11	163	126	127	8
-7276	-2924	13956	-63	110	-207	-16392	864	-2536	-56	-57	146	-16076	2388	-1796	89	57	9	-8488	2312	14220	142	-57	-177	-15612	1004	-4476	-37	-11	-19	-16300	-500	-1360	-33	-70	171	126	124	8
-7304	-2972	13988	-101	143	-205	-16464	800	-2368	20	-65	162	-16132	2468	-1704	117	58	36	-8548	2256	14264	97	-32	-192	-15628	968	-4452	-110	-4	-28	-16284	-604	-1404	-93	-44	216	126	125	8
-7220	-2988	13880	-54	125	-185	-16436	800	-2448	-5	-38	177	-16068	2404	-1660	203	87	59	-8572	2276	14336	148	6	-173	-15536	852	-4596	59	-21	-38	-16132	-544	-1324	23	-51	239	125	121	8
-7228	-3016	13908	-80	111	-194	-16492	768	-2464	73	-47	168	-16140	2424	-1608	233	82	39	-8568	2284	14280	139	-44	-148	-15592	980	-4636	30	4	13	-16240	-476	-1200	-1	-43	203	125	124	8
-7260	-2924	13848	-87	160	-217	-16476	784	-2496	104	-11	145	-16112	2356	-1612	289	76	45	-8508	2244	14224	142	-43	-135	-15616	1064	-4444	40	46	-33	-16284	-460	-1132	42	-77	202	125	124	8
-7252	-2964	13908	-105	128	-207	-16420	892	-2440	151	38	146	-16172	2524	-1532	330	13	61	-8512	2304	14324	127	-9	-160	-15672	980	-4532	1	5	-16	-16228	-572	-1228	215	-100	175	125	130	8
-7256	-3004	13800	-104	130	-189	-16464	844	-2640	147	70	142	-16072	2544	-1576	261	30	59	-8468	2184	14284	111	-82	-174	-15632	952	-4544	54	23	3	-16192	-504	-1420	206	-114	201	125	126	8
-7204	-2976	13820	-145	161	-224	-16444	888	-2492	47	53	167	-16084	2512	-1684	275	2	59	-8608	2360	14196	130	15	-166	-15580	972	-4552	100	8	7	-16260	-420	-1432	92	-49	184	125	123	8
-7284	-3024	13984	-95	156	-161	-16432	736	-2608	51	81	121	-16084	2520	-1756	217	39	3	-8492	2276	14344	103	13	-204	-15576	932	-4584	65	-5	-27	-16240	-432	-1376	-51	-36	219	125	127	8
-7324	-2964	13956	-102	168	-144	-16436	836	-2532	19	60	161	-16084	2488	-1740	187	18	-19	-8476	2248	14296	109	-37	-192	-15612	972	-4484	-117	-4	-45	-16284	-548	-1396	-183	-85	180	126	123	8
-7268	-2988	13880	-83	156	-212	-16472	804	-2612	30	43	124	-16116	2464	-1736	124	25	21	-8508	2296	14340	98	-49	-177	-15612	952	-4640	-40	17	-32	-16164	-544	-1340	-32	-75	185	125	123	8
-7348	-2956	13956	-104	154	-198	-16436	872	-2684	76	24	155	-16044	2448	-1692	113	56	41	-8500	2296	14360	132	-38	-181	-15552	1000	-4596	27	10	-4	-16304	-536	-1312	64	-24	167	125	121	8
-7272	-3008	13900	-129	143	-186	-16472	740	-2544	52	46	135	-16020	2412	-1852	145	-29	30	-8520	2192	14288	98	-51	-184	-15640	960	-4528	-34	9	-4	-16236	-560	-1264	56	-72	186	125	124	8
-7328	-3032	13992	-91	148	-193	-16436	728	-2696	57	31	112	-16176	2360	-1728	215	-37	28	-8548	2272	14296	97	-52	-152	-15544	852	-4572	-30	13	-20	-16152	-556	-1420	-23	-101	142	125	122	8
-7292	-2972	13928	-111	159	-182	-16384	768	-2524	140	50	161	-16128	2460	-1772	301	-4	25	-8488	2240	14420	62	-31	-180	-15608	976	-4612	-11	24	-6	-16180	-540	-1424	57	-106	182	125	125	8
-7248	-2988	13928	-76	131	-179	-16448	884	-2660	116	31	128	-16072	2408	-1648	263	27	52	-8596	2260	14168	108	-28	-161	-15576	980	-4624	26	-24	-18	-16228	-548	-1384	88	-97	214	125	123	8
-7280	-2980	13848	-85	132	-173	-16460	824	-2544	174	24	144	-16068	2464	-1776	222	-6	53	-8520	2244	14280	126	-19	-162	-15540	928	-4580	86	-37	-22	-16204	-500	-1392	19	-80	195	125	124	8
-7284	-2972	13872	-94	124	-190	-16412	908	-2552	126	2	141	-16012	2516	-1848	205	25	45	-8560	2288	14276	122	-38	-171	-15564	992	-4536	62	-42	-35	-16248	-484	-1340	53	-70	177	125	126	8
-7312	-3052	13948	-70	125	-215	-16388	756	-2556	137	27	134	-16092	2436	-1612	255	16	24	-8536	2304	14360	116	-12	-156	-15612	900	-4512	34	-44	-48	-16196	-452	-1248	208	-35	180	125	122	8
-7268	-3004	13984	-97	140	-186	-16452	848	-2540	148	32	95	-16068	2448	-1784	243	37	-3	-8600	2256	14260	117	-32	-177	-15628	968	-4432	54	-12	-50	-16148	-488	-1316	62	-86	161	125	125	8
-7280	-2952	13836	-88	148	-201	-16396	908	-2556	191	12	100	-16136	2508	-1724	275	-6	7	-8564	2304	14364	94	3	-183	-15528	1012	-4508	34	-12	-39	-16236	-424	-1460	115	-85	177	125	125	8
-7308	-2940	13984	-65	128	-192	-16424	872	-2688	144	-2	123	-16100	2488	-1788	228	33	40	-8564	2220	14196	117	-50	-163	-15512	920	-4436	25	-24	-41	-16216	-500	-1332	45	-101	209	125	124	8
-7248	-2956	13884	-60	128	-225	-16480	804	-2720	121	15	147	-16036	2528	-1728	207	11	57	-8552	2308	14248	128	2	-168	-15556	932	-4508	33	2	27	-16192	-512	-1212	105	-96	169	125	130	8
-7320	-2952	13876	-67	133	-202	-16496	836	-2704	129	27	155	-16096	2532	-1776	237	15	48	-8488	2272	14212	102	-30	-168	-15596	1048	-4532	16	4	-29	-16188	-476	-1280	84	-106	197	125	127	8
-7272	-2892	13908	-73	146	-211	-16492	796	-2604	128	7	153	-16172	2476	-1688	244	6	5	-8540	2240	14320	93	-58	-166	-15608	1000	-4540	51	-27	-32	-16184	-400	-1400	95	-157	167	125	121	8
-7268	-2960	13864	-73	124	-199	-16432	812	-2732	93	-23	133	-16012	2516	-1644	207	-21	35	-8476	2112	14292	61	-9	-193	-15560	916	-4552	64	3	-23	-16140	-456	-1404	-33	-151	186	125	125	8
-7248	-2932	13912	-106	162	-182	-16428	840	-2688	97	-3	128	-16092	2516	-1692	169	-13	-1	-8456	2296	14280	122	-31	-152	-15592	1028	-4448	-39	50	-31	-16260	-488	-1412	-9	-117	198	125	126	8
-7264	-3004	13900	-75	111	-212	-16492	864	-2696	85	-40	135	-16072	2516	-1824	99	-12	43	-8444	2296	14304	92	-55	-129	-15612	952	-4508	-136	33	-67	-16296	-428	-1232	46	-149	160	125	127	8
-7264	-2940	14004	-86	119	-196	-16424	896	-2564	17	-39	154	-16100	2504	-1836	67	-5	-18	-8568	2276	14232	88	-76	-157	-15572	964	-4484	-72	29	-17	-16260	-580	-1308	-46	-147	190	125	127	8
-7224	-2948	13860	-84	111	-219	-16508	736	-2620	-36	-69	145	-16068	2452	-1864	27	32	-5	-8536	2316	14280	89	-66	-187	-15628	992	-4736	-51	15	-40	-16148	-504	-1524	-45	-157	135	125	124	8
-7312	-3028	13960	-115	125	-225	-16480	780	-2756	5	-89	117	-16092	2412	-1900	68	56	-3	-8508	2224	14360	87	-92	-174	-15596	884	-4540	-53	-24	-23	-16284	-508	-1424	-40	-172	126	126	127	8
-7316	-2984	13996	-59	133	-209	-16516	796	-2700	-34	-135	97	-16100	2420	-1952	114	27	-8	-8456	2236	14340	115	-2	-141	-15588	948	-4640	9	-7	-26	-16228	-496	-1564	95	-129	160	126	133	8
-7324	-2992	13932	-104	143	-213	-16460	764	-2632	-43	-149	125	-16036	2456	-1708	115	-50	10	-8520	2212	14236	102	5	-145	-15620	972	-4668	9	-50	-53	-16192	-584	-1520	53	-138	147	126	125	8
-7292	-2988	13940	-87	146	-196	-16496	840	-2484	46	-120	116	-16092	2496	-1756	175	-41	-6	-8508	2324	14316	129	-11	-158	-15484	1008	-4632	65	-73	-49	-16180	-344	-1468	163	-98	159	127	127	8
-7280	-2892	13976	-129	147	-181	-16460	872	-2600	53	-99	131	-16124	2488	-1532	171	-47	6	-8512	2284	14276	129	-70	-117	-15544	1044	-4620	31	-90	-62	-16232	-544	-1388	15	-158	152	127	126	8
-7280	-2944	13900	-132	169	-256	-16524	832	-2484	43	-122	97	-16136	2536	-1556	233	-46	33	-8512	2264	14264	91	-28	-162	-15548	972	-4520	2	-112	-60	-16184	-472	-1304	-4	-240	190	127	129	8
-7252	-2980	13972	-100	153	-237	-16452	840	-2544	94	-81	117	-16108	2492	-1712	254	-29	14	-8464	2248	14380	82	-106	-126	-15592	944	-4420	64	-116	-87	-16184	-424	-1108	26	-210	148	127	125	8
-7240	-2996	13972	-107	164	-230	-16456	804	-2572	94	-122	108	-16124	2460	-1772	302	-26	8	-8540	2344	14336	97	-93	-136	-15532	1016	-4352	27	-34	-38	-16312	-432	-1276	109	-154	151	127	128	8
-7220	-2952	13872	-82	131	-216	-16468	856	-2628	135	-88	114	-16076	2512	-1696	231	0	-17	-8516	2288	14336	69	-33	-160	-15592	972	-4460	-14	-46	-34	-16252	-592	-1224	131	-229	172	127	126	8
-7300	-2936	13920	-106	127	-247	-16508	816	-2732	128	-87	120	-16088	2444	-1800	198	3	6	-8544	2208	14356	37	-56	-167	-15572	860	-4588	105	-38	-35	-16312	-508	-1216	176	-223	165	127	127	8
-7260	-2980	14000	-91	137	-228	-16440	796	-2664	53	-79	136	-16056	2412	-1684	157	-3	1	-8540	2232	14304	118	-81	-173	-15668	1016	-4672	139	-56	-79	-16212	-524	-1492	257	-196	152	127	125	8
-7328	-3036	13908	-98	145	-197	-16396	816	-2656	29	-52	113	-16072	2476	-1624	153	-43	-20	-8512	2248	14324	73	-66	-213	-15572	1020	-4560	17	-59	-7	-16180	-444	-1392	105	-145	127	127	125	8
-7296	-2956	13948	-125	136	-224	-16484	804	-2544	17	-71	119	-16104	2436	-1744	142	-30	-4	-8460	2228	14284	143	7	-146	-15552	1004	-4620	38	-31	-69	-16240	-480	-1472	-16	-180	171	127	130	8
-7272	-2920	13980	-69	157	-237	-16448	760	-2580	40	-111	133	-16108	2428	-1716	62	-57	8	-8504	2312	14292	84	-38	-144	-15616	996	-4440	-87	-15	-59	-16216	-424	-1288	-102	-207	205	127	129	8
-7264	-2920	13976	-88	135	-225	-16456	812	-2604	72	-74	83	-16132	2404	-1684	106	-58	27	-8460	2224	14308	92	-29	-211	-15564	920	-4604	-165	-41	-90	-16236	-548	-1260	-130	-190	215	127	127	8
-7240	-2956	13936	-102	178	-199	-16504	788	-2520	12	-93	123	-16156	2456	-1760	66	-66	47	-8532	2244	14376	106	-33	-160	-15644	908	-4460	-48	-34	-48	-16232	-500	-1384	-145	-169	153	127	124	8
-7256	-2936	13948	-113	149	-203	-16392	824	-2640	21	-50	117	-16088	2432	-1696	149	-54	26	-8444	2240	14344	129	-11	-158	-15572	1024	-4604	-62	-75	-63	-16224	-572	-1296	-3	-130	181	126	127	8
-7272	-3032	13816	-108	176	-155	-16440	720	-2532	10	-66	168	-16120	2440	-1584	113	-78	-8	-8488	2296	14408	92	-54	-129	-15588	924	-4616	-75	-85	-33	-16188	-544	-1324	21	-172	164	127	129	8
-7252	-3032	13920	-71	148	-204	-16500	824	-2464	14	-100	136	-16080	2416	-1728	124	-40	35	-8512	2284	14252	134	-53	-161	-15568	1000	-4544	12	-57	-47	-16204	-484	-1344	35	-102	191	127	127	8
-7248	-2996	13928	-119	147	-183	-16424	776	-2492	10	-61	143	-16100	2368	-1640	81	-58	18	-8500	2316	14328	116	-27	-118	-15568	904	-4356	-24	-41	-34	-16268	-444	-1168	-87	-175	209	127	129	8
-7300	-2960	14036	-85	138	-210	-16432	828	-2532	18	-76	162	-16068	2500	-1784	64	-53	38	-8500	2308	14292	112	-28	-151	-15640	1016	-4420	-108	-30	-43	-16208	-496	-1264	-20	-222	215	127	128	8
-7296	-2960	13940	-110	137	-223	-16472	832	-2600	-5	-75	120	-16140	2488	-1652	113	-71	44	-8536	2256	14348	87	-55	-177	-15572	944	-4556	-87	-21	4	-16236	-568	-1288	-14	-205	188	127	129	8
-7256	-2928	13864	-80	172	-183	-16472	844	-2472	97	-62	127	-16088	2440	-1632	172	-68	18	-8560	2228	14268	146	-55	-190	-15556	936	-4644	-45	-81	-21	-16064	-540	-1364	25	-211	206	127	128	8
-7208	-2952	13936	-85	157	-255	-16460	852	-2564	88	-53	155	-16064	2432	-1608	223	-68	31	-8536	2260	14268	147	-59	-131	-15584	940	-4536	39	-50	-10	-16160	-516	-1420	51	-188	190	127	129	8
-7280	-3028	13868	-48	143	-208	-16432	752	-2532	78	-87	154	-16040	2444	-1664	162	-53	21	-8532	2328	14288	168	31	-144	-15596	1040	-4556	-53	-75	-25	-16168	-460	-1296	165	-161	179	127	128	8
-7352	-2996	13900	-73	164	-208	-16440	836	-2616	54	-84	145	-16080	2472	-1760	182	-55	32	-8580	2284	14364	151	-76	-172	-15540	968	-4552	-26	-62	-50	-16180	-468	-1456	29	-204	189	127	130	8
-7320	-2992	13984	-62	128	-248	-16460	888	-2604	67	-95	170	-16132	2460	-1660	161	-72	37	-8464	2292	14332	126	-21	-133	-15640	1024	-4568	-12	-91	-38	-16224	-436	-1344	-24	-170	222	127	128	8
-7256	-2940	13836	-81	134	-195	-16464	812	-2596	4	-97	173	-16104	2532	-1708	92	-15	20	-8472	2292	14316	150	-45	-128	-15488	1008	-4468	-66	-75	-39	-16156	-376	-1288	38	-129	197	127	129	8
-7296	-2940	13932	-75	159	-207	-16456	840	-2536	11	-69	173	-16060	2476	-1732	142	-65	12	-8512	2264	14292	118	-57	-143	-15568	988	-4468	-40	-60	-55	-16244	-460	-1188	-2	-153	136	127	127	8
-7248	-2924	13932	-79	139	-214	-16588	852	-2612	1	-103	134	-16120	2524	-1624	141	-60	-2	-8496	2340	14268	96	-44	-203	-15648	988	-4488	-23	-72	-28	-16288	-464	-1220	-2	-169	174	127	127	8
-7324	-2988	13988	-97	143	-197	-16464	860	-2480	71	-68	146	-16140	2468	-1608	190	-74	20	-8520	2272	14276	110	-5	-136	-15500	996	-4384	-8	-41	-32	-16184	-436	-1128	-102	-181	182	127	127	8
-7252	-3000	13916	-108	153	-200	-16476	848	-2452	57	-94	131	-16068	2480	-1580	133	-50	25	-8488	2356	14276	120	-43	-159	-15592	1008	-4488	-85	-31	-42	-16252	-508	-1084	-54	-203	162	127	129	8
-7284	-2924	13880	-114	138	-208	-16448	880	-2488	45	-48	147	-16012	2400	-1712	160	-92	13	-8480	2296	14412	94	-38	-177	-15628	984	-4436	-97	-24	-68	-16216	-548	-1276	-48	-274	197	127	128	8
-7328	-2968	13884	-52	142	-205	-16504	764	-2460	36	-26	124	-16128	2424	-1740	114	-79	-17	-8520	2288	14296	121	-67	-177	-15632	928	-4488	-94	-9	-40	-16260	-464	-1284	137	-179	146	127	128	8
-7256	-2924	13992	-96	138	-151	-16480	864	-2532	34	-28	117	-16148	2432	-1676	130	-80	12	-8468	2276	14404	110	-54	-149	-15596	1000	-4628	-11	-16	-48	-16192	-492	-1252	78	-124	166	127	130	8
-7232	-3052	13972	-109	143	-194	-16472	776	-2524	65	-40	120	-16112	2444	-1636	141	-86	-4	-8428	2316	14344	98	-48	-170	-15544	972	-4616	-14	-63	-39	-16360	-476	-1492	22	-134	202	127	125	8
-7248	-2992	13920	-68	136	-189	-16444	916	-2684	51	-48	125	-16084	2412	-1608	141	-69	36	-8500	2240	14368	125	-33	-166	-15564	1036	-4616	-27	-29	-27	-16232	-568	-1208	-77	-191	185	127	127	8
-7300	-2924	13884	-133	122	-181	-16520	864	-2520	72	-56	129	-16032	2524	-1656	138	-49	18	-8488	2272	14352	147	-41	-135	-15588	992	-4644	2	-46	-55	-16192	-504	-1260	1	-156	191	127	128	8
-7252	-2956	14016	-55	175	-218	-16444	824	-2548	90	-66	105	-16112	2488	-1716	185	-59	24	-8464	2300	14324	116	-15	-188	-15640	968	-4612	-8	-64	-49	-16244	-456	-1308	59	-143	203	127	128	8
-7272	-2964	13936	-84	140	-223	-16456	908	-2568	97	-100	124	-16092	2448	-1664	180	-34	30	-8524	2344	14172	111	-50	-100	-15576	916	-4536	-3	-92	-22	-16144	-416	-1188	117	-127	182	127	125	8
-7260	-2996	13900	-76	124	-199	-16524	768	-2624	92	-110	161	-16136	2436	-1664	226	-14	7	-8540	2324	14240	159	-39	-161	-15576	1032	-4468	43	-79	-30	-16280	-452	-1256	54	-121	159	127	127	8
-7288	-2964	13988	-98	126	-208	-16456	888	-2496	155	-75	139	-16072	2424	-1680	285	-26	48	-8576	2236	14220	135	-38	-139	-15520	940	-4364	-4	-42	-66	-16228	-424	-1084	-15	-131	181	127	128	8
-7272	-2932	13940	-91	131	-213	-16472	824	-2524	83	-73	120	-16128	2556	-1584	194	-51	53	-8432	2268	14172	120	-38	-147	-15596	936	-4440	-56	-18	-40	-16224	-544	-1028	-51	-146	182	127	127	8
-7180	-3012	13872	-64	134	-197	-16428	780	-2448	119	-54	139	-16140	2504	-1540	180	-41	21	-8496	2216	14356	102	-30	-161	-15692	972	-4548	45	-17	-33	-16196	-444	-1288	41	-185	164	127	128	8
-7256	-2968	13920	-105	132	-193	-16448	868	-2584	95	-26	128	-16144	2504	-1620	144	-29	60	-8460	2300	14236	73	-13	-167	-15648	1040	-4600	-12	-27	-39	-16252	-464	-1240	121	-222	164	127	128	8
-7280	-2960	13924	-68	145	-185	-16500	808	-2496	83	-21	135	-16152	2532	-1648	129	14	12	-8556	2296	14336	90	-8	-153	-15612	1000	-4604	-51	-12	-14	-16180	-364	-1316	102	-159	149	127	127	8
-7264	-2888	13884	-135	123	-194	-16440	872	-2536	53	-53	137	-16076	2540	-1620	98	-12	50	-8552	2300	14280	88	-11	-165	-15620	1020	-4548	-21	-23	-45	-16232	-468	-1248	-15	-169	178	127	124	8
-7280	-2948	13936	-104	157	-233	-16456	808	-2612	-5	-52	137	-16076	2436	-1696	32	45	12	-8488	2300	14288	104	-64	-132	-15588	960	-4472	-83	-70	-86	-16252	-524	-1228	-71	-186	167	127	125	8
-7268	-2972	14004	-106	160	-224	-16412	772	-2476	-14	-67	116	-16044	2460	-1820	54	-8	-5	-8556	2312	14324	75	-29	-160	-15600	952	-4444	-109	-27	-19	-16284	-484	-1216	-65	-294	123	127	128	8
-7276	-3020	13916	-82	142	-231	-16456	804	-2604	-2	-97	138	-16048	2396	-1876	68	20	-1	-8508	2364	14252	121	-46	-132	-15560	984	-4464	-38	-34	-64	-16228	-524	-1184	3	-260	120	127	128	8
-7276	-2992	13988	-84	147	-220	-16456	808	-2560	-21	-119	150	-16080	2396	-1788	90	-12	1	-8456	2320	14240	122	-64	-122	-15616	984	-4532	-79	-23	-61	-16100	-388	-1196	-16	-252	145	127	128	8
-7192	-3012	13924	-91	116	-218	-16448	776	-2548	-26	-122	172	-16088	2428	-1760	118	10	17	-8568	2288	14392	95	-71	-135	-15564	1044	-4600	-71	-43	-45	-16200	-440	-1220	-24	-170	148	127	130	8
-7272	-2964	13876	-128	167	-231	-16536	880	-2508	1	-129	100	-16124	2492	-1544	202	10	8	-8520	2276	14284	140	-57	-124	-15612	1000	-4504	-72	-21	-45	-16224	-520	-1220	-26	-155	160	127	128	8
-7288	-2960	13996	-100	158	-215	-16472	824	-2476	69	-150	171	-16056	2460	-1556	160	13	41	-8432	2276	14364	122	-53	-152	-15612	1052	-4464	-57	0	-51	-16228	-540	-1140	53	-147	200	127	128	8
-7240	-2996	13876	-63	153	-220	-16476	892	-2348	-3	-88	136	-16116	2528	-1484	180	4	35	-8508	2260	14328	108	-57	-159	-15572	1040	-4424	-4	-62	-93	-16248	-516	-1276	91	-142	155	127	125	8
-7252	-3008	13888	-105	126	-221	-16420	772	-2420	66	-50	142	-16124	2520	-1440	151	-6	5	-8436	2260	14372	103	-59	-166	-15564	996	-4624	-8	-6	-41	-16232	-456	-1324	80	-201	178	127	128	8
-7292	-2972	13872	-85	144	-206	-16480	868	-2448	78	-70	161	-16068	2508	-1408	173	-36	19	-8452	2268	14372	110	-28	-139	-15628	1012	-4604	37	-35	-17	-16176	-452	-1300	20	-151	161	128	128	8
-7248	-2976	13996	-34	109	-179	-16456	820	-2384	20	7	119	-16200	2404	-1416	198	-56	-23	-8512	2252	14324	116	8	-141	-15580	1004	-4500	4	-69	-38	-16272	-424	-1188	0	-51	182	128	129	8
-7288	-2984	13928	-51	150	-169	-16488	828	-2508	126	-19	117	-16100	2424	-1504	213	-22	-3	-8540	2308	14420	136	-44	-115	-15560	1048	-4508	-30	-50	-63	-16232	-496	-1120	-80	-108	178	128	130	8
-7208	-3008	13936	-69	138	-202	-16424	900	-2472	143	5	143	-16120	2452	-1616	216	-37	1	-8572	2276	14304	130	-33	-156	-15644	1072	-4432	-68	-43	-35	-16208	-568	-1152	18	-114	199	127	132	8
-7240	-2872	13884	-94	132	-215	-16508	800	-2660	100	-4	142	-16044	2464	-1588	251	-4	41	-8496	2324	14292	135	-65	-168	-15528	920	-4584	60	-42	-5	-16148	-596	-1232	200	-107	187	127	127	8
-7300	-3024	13932	-84	141	-207	-16456	812	-2600	131	-2	157	-16100	2508	-1660	296	12	41	-8484	2240	14272	134	0	-159	-15552	936	-4512	113	-43	-57	-16276	-492	-1124	159	-111	207	127	127	8
-7248	-2968	13888	-76	118	-209	-16424	880	-2520	179	-31	133	-16128	2484	-1768	350	-12	13	-8496	2260	14356	112	-2	-158	-15652	1056	-4524	86	-50	-52	-16252	-540	-1196	132	-57	184	127	130	8
-7280	-2960	13956	-78	141	-214	-16432	860	-2580	194	-15	178	-16064	2496	-1792	340	11	15	-8544	2240	14268	155	-74	-153	-15552	980	-4592	6	-56	-34	-16236	-412	-1308	185	-120	175	127	128	8
-7268	-2972	13844	-107	156	-190	-16468	884	-2508	134	-24	141	-16056	2536	-1688	302	5	34	-8516	2224	14312	110	-33	-183	-15652	964	-4432	83	-50	-32	-16116	-400	-1252	130	-125	183	127	127	8
-7260	-2992	13984	-76	132	-214	-16436	840	-2608	131	-46	151	-16120	2524	-1688	245	-6	37	-8540	2372	14288	78	-33	-137	-15540	1052	-4452	89	-41	-55	-16160	-432	-1064	89	-94	194	127	127	8
-7268	-3000	13984	-101	177	-219	-16460	848	-2536	99	15	90	-16080	2536	-1552	221	1	36	-8524	2280	14328	81	-54	-131	-15588	1012	-4384	13	2	-85	-16280	-440	-1208	35	-83	169	127	125	8
-7324	-2904	13964	-71	137	-218	-16500	824	-2536	109	-3	114	-16120	2512	-1552	181	2	10	-8444	2352	14252	90	-80	-173	-15588	1044	-4412	-42	25	-77	-16268	-444	-1068	3	-72	135	127	127	8
-7268	-2952	13924	-127	142	-192	-16496	928	-2576	62	-13	108	-16132	2548	-1668	151	39	32	-8464	2280	14424	126	0	-153	-15620	936	-4476	-147	-5	-43	-16244	-432	-1124	-147	-76	174	127	129	8
-7252	-2952	13988	-90	126	-221	-16496	800	-2596	-3	-5	143	-16108	2504	-1676	108	19	2	-8520	2216	14332	118	20	-162	-15608	1016	-4544	-91	-1	-70	-16148	-524	-1164	-148	-69	163	127	127	8
-7236	-2928	13884	-111	150	-183	-16472	860	-2492	-34	-38	125	-16152	2492	-1720	76	-8	1	-8504	2272	14284	100	-24	-191	-15568	996	-4548	-63	-1	-37	-16160	-528	-1204	-99	-124	164	128	130	8
-7248	-2964	13884	-84	134	-239	-16432	860	-2528	-10	-27	127	-16064	2400	-1512	100	-31	23	-8460	2248	14348	115	-54	-181	-15592	984	-4408	32	-17	-69	-16244	-508	-1196	33	-45	207	127	127	8
-7280	-3036	13944	-116	128	-194	-16452	792	-2476	7	-17	106	-16116	2376	-1564	136	39	-2	-8500	2340	14316	104	-47	-179	-15612	932	-4492	1	-28	-24	-16260	-488	-1256	108	-21	197	127	130	8
-7216	-2964	13912	-67	133	-213	-16496	832	-2552	106	-14	139	-16044	2420	-1672	200	29	24	-8472	2304	14448	130	-5	-160	-15600	964	-4540	30	-16	-30	-16164	-532	-1212	87	-60	206	127	128	8
-7312	-3004	13824	-86	140	-198	-16452	808	-2492	83	-7	149	-16112	2484	-1664	255	30	39	-8460	2264	14264	105	-42	-118	-15556	964	-4536	57	-43	-29	-16196	-460	-1152	-96	-45	213	128	131	8
-7264	-2880	13832	-111	113	-185	-16468	876	-2512	126	-20	163	-16076	2516	-1568	273	34	21	-8480	2288	14248	126	1	-159	-15680	1040	-4412	-57	0	-66	-16320	-376	-1040	-29	-46	164	128	128	8
-7288	-2992	13960	-92	129	-186	-16452	864	-2492	139	12	140	-16084	2560	-1576	321	30	13	-8500	2280	14348	107	-30	-150	-15568	1000	-4460	-58	13	-32	-16256	-436	-1244	28	-71	158	127	131	8
-7240	-2948	13928	-69	137	-214	-16464	916	-2424	83	25	124	-16100	2596	-1452	304	26	4	-8508	2316	14296	151	-86	-163	-15608	1024	-4536	56	4	-5	-16240	-300	-1252	41	-25	148	127	126	8
-7260	-2976	13936	-87	121	-195	-16496	920	-2420	98	4	127	-16192	2560	-1576	275	55	-1	-8484	2340	14304	108	-28	-151	-15564	956	-4540	24	21	-34	-16164	-404	-1220	40	-21	170	127	130	8
-7288	-2992	13924	-86	146	-206	-16452	880	-2492	86	76	110	-16076	2568	-1660	222	50	9	-8508	2284	14248	79	-43	-154	-15624	1028	-4496	36	30	-70	-16160	-452	-1288	38	-9	168	127	129	8
-7332	-2948	13976	-89	156	-163	-16452	868	-2496	47	89	120	-16100	2484	-1700	181	89	-9	-8492	2348	14252	116	-23	-179	-15632	940	-4472	69	24	-61	-16200	-500	-1220	42	-34	118	128	126	8
-7316	-3020	13860	-108	171	-191	-16492	924	-2492	79	80	95	-16056	2468	-1668	183	104	-10	-8488	2260	14312	96	-30	-164	-15564	1036	-4524	35	8	-52	-16232	-460	-1328	153	-7	166	127	127	8
-7288	-2952	13928	-101	162	-214	-16476	856	-2520	91	39	103	-16092	2492	-1688	200	42	-5	-8508	2252	14368	89	-7	-175	-15560	1040	-4488	28	-11	-54	-16132	-412	-1208	51	-31	161	127	128	8
-7240	-2944	13928	-119	167	-196	-16452	852	-2416	105	15	140	-16088	2480	-1764	241	74	-9	-8484	2308	14340	99	-20	-171	-15568	976	-4480	40	45	-74	-16276	-392	-1256	-34	-16	156	127	128	8
-7324	-3036	13924	-138	157	-192	-16464	812	-2536	115	15	109	-16112	2492	-1704	306	14	-8	-8520	2276	14396	110	-32	-181	-15628	1032	-4412	14	7	-79	-16220	-420	-1192	-89	-70	139	127	127	8
-7308	-3028	13908	-118	175	-188	-16404	868	-2536	85	38	100	-16104	2380	-1652	282	30	8	-8548	2308	14336	120	-6	-201	-15572	1004	-4504	-93	38	-60	-16200	-496	-1260	-47	-81	170	127	127	8
-7332	-2936	13908	-113	155	-208	-16536	856	-2504	104	31	99	-16088	2528	-1696	239	-4	-10	-8488	2256	14252	115	-54	-191	-15620	888	-4556	6	53	-20	-16188	-528	-1364	39	-75	146	127	129	8
-7336	-2952	13912	-137	160	-207	-16520	804	-2656	47	69	56	-16168	2532	-1592	155	47	20	-8452	2284	14292	80	1	-158	-15608	992	-4632	66	22	-59	-16220	-536	-1368	46	-42	163	127	130	8
-7336	-3056	13900	-117	169	-212	-16360	844	-2480	22	27	99	-16100	2476	-1704	177	21	13	-8496	2224	14344	141	-34	-174	-15608	988	-4652	-21	26	-62	-16168	-428	-1356	63	31	149	128	128	8
-7312	-3024	13844	-90	173	-180	-16452	800	-2536	81	30	112	-16060	2428	-1756	140	32	-10	-8464	2292	14344	136	-11	-160	-15580	1024	-4520	-84	20	-84	-16200	-508	-1148	-15	4	182	128	127	8
-7308	-2968	13996	-75	150	-219	-16384	804	-2520	76	50	128	-16132	2504	-1636	138	9	5	-8436	2296	14344	101	9	-183	-15556	964	-4520	-12	-6	-60	-16212	-508	-1332	10	-49	152	127	125	8
-7236	-3040	13988	-97	135	-193	-16448	788	-2652	80	46	95	-16168	2396	-1720	171	36	12	-8492	2332	14324	133	-53	-151	-15556	968	-4516	14	21	-17	-16236	-520	-1360	-81	-69	160	127	128	8
-7252	-2932	13924	-108	137	-198	-16448	860	-2480	108	66	110	-16112	2424	-1564	243	7	8	-8568	2292	14224	84	13	-143	-15620	964	-4580	-10	39	-55	-16152	-528	-1256	108	-81	164	127	129	8
-7312	-2992	13864	-99	115	-142	-16476	784	-2552	118	56	112	-16112	2396	-1696	258	24	35	-8508	2300	14392	131	-66	-171	-15536	968	-4608	61	-24	-12	-16120	-624	-1308	-14	-57	191	127	127	8
-7232	-2952	13888	-80	110	-186	-16404	760	-2580	149	32	141	-16048	2500	-1688	292	2	28	-8508	2292	14256	115	-36	-138	-15572	1016	-4560	53	15	-54	-16180	-520	-1312	68	17	192	127	127	8
-7264	-2956	13932	-92	147	-179	-16448	884	-2512	139	30	158	-16040	2524	-1588	338	7	29	-8496	2328	14220	149	-29	-168	-15568	1056	-4568	0	-15	-49	-16256	-480	-1416	122	-6	165	127	125	8
-7320	-2956	14032	-78	161	-182	-16528	856	-2576	132	53	117	-16092	2496	-1528	304	14	53	-8512	2308	14316	153	-23	-156	-15604	1016	-4584	90	-33	-18	-16240	-464	-1388	128	-68	188	127	125	8
-7308	-2988	13996	-98	169	-226	-16444	824	-2536	156	64	136	-16068	2436	-1736	307	22	45	-8500	2240	14328	118	-33	-154	-15596	1008	-4524	118	-10	-22	-16152	-476	-1208	117	-53	191	128	125	8
-7356	-2960	13816	-74	132	-210	-16464	808	-2616	147	56	145	-16096	2476	-1600	285	-29	52	-8516	2288	14192	106	-9	-160	-15564	984	-4596	64	-10	-11	-16256	-404	-1340	137	-81	160	127	127	8
-7312	-3008	13964	-64	137	-194	-16472	808	-2496	159	61	119	-16096	2452	-1696	315	14	27	-8544	2292	14312	122	-60	-137	-15648	1008	-4540	7	2	-38	-16192	-488	-1268	68	-55	185	127	129	8
-7284	-2972	13928	-98	154	-210	-16504	864	-2580	182	36	150	-16136	2456	-1744	326	30	40	-8512	2268	14352	138	-12	-144	-15636	1040	-4476	-15	-30	-4	-16348	-424	-1272	127	-64	194	127	126	8
-7292	-2904	13976	-101	140	-163	-16416	972	-2512	183	45	179	-16212	2496	-1796	327	19	35	-8480	2288	14312	86	-1	-175	-15592	1036	-4472	55	17	-1	-16240	-508	-1408	164	-50	188	127	126	8
-7328	-2932	13976	-116	170	-208	-16432	816	-2636	107	100	123	-16140	2500	-1736	359	24	55	-8580	2244	14312	146	-28	-141	-15644	1052	-4608	41	-16	5	-16220	-464	-1388	123	-64	143	127	129	8
-7276	-3024	13972	-43	145	-197	-16452	812	-2640	143	51	123	-16104	2520	-1804	330	36	42	-8580	2224	14252	151	-16	-140	-15528	1012	-4552	127	-43	-38	-16100	-416	-1384	82	-29	161	128	127	8
-7248	-2912	13992	-119	131	-171	-16460	892	-2556	142	41	126	-16096	2492	-1668	279	38	18	-8480	2220	14340	139	-22	-123	-15536	1044	-4648	129	-58	-25	-16232	-492	-1196	101	-65	195	127	128	8
-7296	-2924	13916	-110	140	-184	-16436	848	-2532	102	32	153	-16060	2492	-1776	289	-15	41	-8460	2236	14404	108	-26	-150	-15580	1052	-4484	3	-32	-60	-16228	-456	-1280	64	-128	212	127	126	8
-7216	-2984	13888	-108	107	-193	-16448	864	-2588	173	14	101	-16048	2480	-1720	327	25	21	-8524	2292	14340	153	-46	-159	-15564	1040	-4536	93	-53	-64	-16112	-436	-1292	135	-124	204	128	126	8
-7256	-3032	13872	-134	144	-200	-16508	856	-2588	220	-23	138	-16148	2500	-1652	356	38	13	-8492	2260	14344	127	-25	-152	-15588	1008	-4472	53	-12	-30	-16264	-380	-1260	128	-63	160	127	124	8
-7244	-2944	13928	-95	115	-169	-16420	856	-2564	109	43	116	-16112	2504	-1684	356	10	21	-8524	2336	14304	130	-56	-185	-15680	1048	-4536	15	11	-23	-16196	-356	-1236	44	-14	139	127	126	8
-7292	-2956	13980	-118	126	-205	-16468	800	-2568	169	40	139	-16124	2504	-1612	317	42	22	-8496	2276	14328	130	20	-165	-15580	932	-4616	22	43	-6	-16248	-428	-1156	121	-35	167	127	130	8
-7284	-2908	13888	-112	151	-202	-16516	932	-2532	123	38	112	-16100	2572	-1696	254	21	26	-8484	2304	14312	141	-4	-154	-15536	1092	-4448	20	34	-74	-16204	-412	-1352	39	-64	155	127	129	8
-7300	-2968	13896	-94	156	-173	-16424	884	-2552	76	27	134	-16120	2596	-1596	222	38	-3	-8592	2272	14356	100	5	-209	-15548	1044	-4484	-25	63	-30	-16172	-388	-1312	40	-95	170	127	127	8
-7268	-2964	13900	-118	160	-159	-16404	916	-2672	5	43	111	-16112	2544	-1656	141	26	23	-8484	2228	14272	112	-55	-183	-15520	988	-4512	25	18	-64	-16220	-392	-1272	1	-129	186	127	126	8
-7244	-2952	13920	-104	125	-172	-16456	868	-2556	4	74	70	-16068	2532	-1664	119	-32	10	-8560	2312	14372	79	-87	-174	-15572	996	-4480	-34	53	-52	-16224	-472	-1260	-93	-129	194	127	129	8
-7300	-2888	13936	-114	133	-190	-16444	800	-2564	33	83	88	-16144	2448	-1684	110	-5	7	-8452	2328	14284	109	-47	-216	-15608	1012	-4460	-112	48	-59	-16228	-452	-1296	-97	-91	141	127	130	8
-7288	-2904	13976	-86	153	-168	-16480	836	-2652	87	54	98	-16076	2476	-1700	108	-38	1	-8520	2240	14236	107	-43	-152	-15576	960	-4584	-79	26	-86	-16224	-588	-1316	-172	-93	125	127	125	8
-7284	-2940	13820	-96	155	-216	-16516	792	-2644	11	83	82	-16060	2488	-1796	115	-2	-13	-8564	2304	14324	88	-2	-181	-15564	1020	-4692	-49	54	-41	-16204	-444	-1392	70	-26	142	127	128	8
-7320	-2944	13828	-113	152	-179	-16456	880	-2576	44	1	115	-16056	2468	-1868	173	-30	-17	-8548	2200	14396	87	10	-195	-15644	1036	-4648	-23	-2	-54	-16216	-548	-1416	17	-31	155	127	126	8
-7268	-2956	14048	-99	120	-202	-16456	812	-2696	40	18	78	-16044	2460	-1692	133	2	-2	-8512	2268	14248	95	-31	-141	-15596	1052	-4592	-30	-8	-49	-16244	-456	-1376	128	-69	177	127	127	8
-7264	-2872	13856	-70	150	-207	-16432	836	-2640	72	0	134	-16072	2464	-1716	167	-6	20	-8524	2248	14384	95	-51	-175	-15592	980	-4628	-2	14	-16	-16196	-460	-1448	81	-80	173	127	125	8
-7276	-2932	13884	-94	165	-195	-16460	828	-2680	60	7	96	-16124	2472	-1724	175	6	9	-8572	2244	14332	136	-65	-134	-15600	972	-4492	15	-33	-44	-16268	-528	-1268	-94	-160	166	127	127	8
-7324	-3028	13884	-93	117	-184	-16396	856	-2540	110	9	123	-16084	2504	-1812	225	-18	17	-8468	2248	14248	141	-36	-155	-15556	1004	-4520	-4	-43	-38	-16252	-524	-1396	-67	-143	178	127	126	8
-7280	-3004	13896	-91	129	-196	-16448	880	-2696	123	-16	120	-16104	2440	-1724	244	23	12	-8532	2260	14220	106	-37	-139	-15564	948	-4600	-59	-25	-67	-16172	-560	-1448	5	-142	191	127	129	8
-7292	-2968	13876	-105	145	-215	-16496	892	-2696	146	-7	143	-16036	2508	-1664	204	35	18	-8520	2272	14400	104	-53	-132	-15540	1008	-4428	19	-39	-18	-16208	-532	-1380	68	-107	186	127	130	8
-7256	-2996	13912	-91	163	-213	-16424	820	-2664	128	-20	127	-16120	2520	-1844	207	-44	6	-8532	2280	14348	109	-41	-166	-15636	1072	-4568	61	-18	-38	-16308	-528	-1432	58	-103	169	127	127	8
-7264	-2964	13888	-132	167	-235	-16424	916	-2724	58	-30	97	-16104	2504	-1688	160	-6	35	-8488	2276	14252	121	-3	-186	-15516	988	-4632	-11	-23	-46	-16192	-548	-1388	100	-108	185	127	128	8
-7304	-2992	13820	-133	122	-201	-16468	772	-2712	25	-86	154	-16092	2504	-1728	162	-11	8	-8508	2232	14372	132	-25	-166	-15512	996	-4668	24	-71	-62	-16200	-456	-1408	87	-153	165	127	128	8
-7248	-2996	13908	-58	126	-209	-16452	832	-2724	22	-59	97	-16104	2408	-1684	134	-42	21	-8440	2320	14264	131	5	-166	-15548	1000	-4636	15	-60	-43	-16216	-508	-1376	39	-136	158	127	130	8
-7284	-2900	14004	-54	106	-198	-16428	868	-2612	88	-39	121	-16088	2428	-1860	217	-42	16	-8540	2256	14308	92	43	-132	-15520	1044	-4496	-2	-46	-59	-16160	-424	-1360	-36	-179	188	127	127	8
-7288	-2964	13996	-54	130	-204	-16372	888	-2624	61	-38	140	-16092	2576	-1804	166	-34	28	-8520	2284	14408	121	-69	-127	-15620	1040	-4448	-40	-47	-60	-16276	-432	-1240	-52	-193	198	127	124	8
-7264	-2920	13904	-66	113	-230	-16400	852	-2532	96	-72	124	-16112	2532	-1684	199	-70	20	-8492	2308	14344	135	-24	-171	-15492	976	-4488	-22	-47	-34	-16252	-492	-1296	-38	-172	186	127	127	8
-7280	-2964	13880	-82	115	-208	-16432	808	-2632	119	-12	112	-16040	2508	-1728	205	-65	11	-8552	2256	14296	78	-53	-168	-15524	988	-4676	-30	-45	-29	-16204	-508	-1388	4	-238	173	127	125	8
-7236	-2944	13960	-83	152	-212	-16452	840	-2492	80	-67	106	-16112	2600	-1748	172	-64	4	-8504	2204	14408	102	-41	-155	-15552	1000	-4580	7	-18	-33	-16208	-432	-1544	40	-211	173	127	122	8
-7248	-2944	13892	-84	154	-225	-16428	832	-2792	35	-86	124	-16084	2500	-1772	116	-29	30	-8516	2352	14380	99	-92	-153	-15572	1040	-4712	-17	-85	-53	-16284	-520	-1612	164	-150	159	127	123	8
-7320	-2892	13832	-87	155	-226	-16472	848	-2668	41	-154	111	-16052	2480	-1800	69	-27	-16	-8496	2332	14268	108	9	-149	-15600	928	-4648	60	-100	-59	-16216	-444	-1432	15	-192	144	127	125	8
-7280	-2916	13996	-85	145	-187	-16496	880	-2748	10	-113	149	-16068	2448	-1908	55	-23	27	-8492	2308	14368	146	2	-148	-15580	1068	-4560	4	-129	-38	-16292	-488	-1444	45	-149	163	127	125	8
-7292	-2892	13904	-96	168	-205	-16460	780	-2676	30	-143	134	-16080	2484	-1776	97	-50	37	-8528	2352	14392	119	-10	-138	-15544	1008	-4660	-56	-163	-84	-16184	-480	-1276	-4	-140	156	127	128	8
-7280	-3016	13912	-129	171	-215	-16496	864	-2656	59	-153	163	-16080	2484	-1796	133	-95	9	-8512	2324	14240	145	3	-112	-15512	1100	-4396	-81	-140	-46	-16108	-520	-1248	-17	-142	134	127	128	8
-7292	-2992	13936	-126	163	-233	-16456	892	-2512	57	-163	113	-16104	2512	-1680	137	-62	23	-8548	2272	14180	134	-40	-128	-15552	1028	-4644	-11	-125	-79	-16220	-448	-1272	5	-164	114	127	127	8
-7276	-2944	13944	-87	125	-243	-16476	848	-2696	91	-142	121	-16080	2484	-1648	156	-39	34	-8540	2256	14272	128	-43	-126	-15528	1016	-4468	33	-130	-80	-16144	-384	-1244	-57	-185	170	127	129	8
-7308	-2960	13864	-110	143	-246	-16420	856	-2564	71	-141	89	-16104	2568	-1548	176	-13	14	-8524	2304	14316	134	-18	-121	-15524	1016	-4344	-14	-53	-79	-16204	-424	-1216	1	-142	170	127	123	8
-7332	-3012	13988	-109	141	-250	-16436	892	-2592	29	-178	115	-16048	2576	-1760	175	0	-8	-8536	2304	14324	99	-29	-168	-15588	1036	-4452	-69	-86	-94	-16180	-428	-1132	17	-212	139	127	127	8
-7240	-2920	13916	-86	125	-195	-16476	860	-2528	-36	-128	109	-16060	2528	-1680	111	-47	-9	-8472	2272	14288	99	-108	-172	-15604	1012	-4428	-14	-64	-106	-16248	-428	-1148	-5	-227	123	127	126	8
-7228	-2980	13940	-61	120	-257	-16468	812	-2464	-55	-113	127	-16144	2536	-1532	5	-13	-7	-8504	2328	14324	93	-77	-181	-15608	936	-4568	-68	-24	-76	-16240	-512	-1132	26	-235	160	127	127	8
-7260	-2980	13892	-102	114	-228	-16472	768	-2552	-42	-91	83	-16100	2504	-1568	28	-22	-14	-8520	2264	14320	105	-91	-182	-15628	1032	-4380	-25	-4	-75	-16236	-368	-1188	-68	-219	149	127	127	8
-7268	-2968	13932	-76	107	-215	-16508	792	-2588	-28	-119	73	-16156	2504	-1712	27	-36	-50	-8584	2288	14240	92	-50	-180	-15556	1028	-4528	-110	-3	-70	-16180	-508	-1468	-94	-185	158	127	127	8
-7272	-2880	14036	-102	146	-249	-16460	880	-2616	-49	-117	115	-16112	2484	-1704	28	-26	-33	-8488	2244	14408	125	-20	-139	-15584	976	-4672	-95	-46	-102	-16180	-468	-1372	-150	-140	165	127	129	8
-7280	-3088	13916	-71	174	-242	-16584	840	-2592	-32	-124	129	-16064	2444	-1856	62	73	-24	-8508	2280	14332	101	10	-136	-15640	988	-4648	-104	-50	-61	-16224	-504	-1424	-32	-213	142	127	126	8
-7324	-2896	13904	-96	152	-213	-16520	868	-2548	-146	-155	127	-16060	2416	-1744	29	48	-1	-8572	2276	14292	131	-47	-169	-15612	960	-4672	-19	-40	-27	-16244	-436	-1388	55	-108	142	127	129	8
-7316	-2984	13944	-89	168	-209	-16444	808	-2612	-45	-128	132	-16080	2444	-1724	125	-16	-17	-8516	2292	14316	91	-59	-117	-15576	1092	-4492	11	-84	-82	-16180	-492	-1316	-75	-85	154	127	129	8
-7268	-2932	14000	-102	160	-209	-16396	944	-2488	37	-108	142	-16100	2468	-1624	148	-73	0	-8496	2272	14336	88	-22	-159	-15568	1000	-4560	-34	-78	-67	-16208	-488	-1256	-26	-175	151	127	127	8
-7260	-2976	13928	-63	154	-233	-16460	816	-2500	39	-122	150	-16120	2548	-1544	194	-90	28	-8508	2288	14384	110	-29	-141	-15588	1012	-4580	-22	-106	-94	-16264	-448	-1220	-129	-185	193	127	128	8
-7316	-2956	13856	-111	177	-168	-16508	828	-2364	40	-70	117	-16076	2372	-1500	190	-63	-6	-8516	2292	14260	103	-26	-159	-15608	984	-4484	-94	-44	-87	-16196	-440	-1060	-48	-169	177	127	129	8
-7328	-3004	13932	-104	150	-181	-16456	824	-2400	89	-47	122	-16100	2404	-1680	180	-92	-9	-8492	2384	14280	94	-43	-160	-15620	976	-4488	-78	-65	-51	-16288	-404	-1428	74	-174	122	127	130	8
-7228	-2972	13904	-86	95	-190	-16484	856	-2500	68	-68	132	-16136	2508	-1628	124	-56	24	-8512	2364	14380	106	-23	-161	-15704	964	-4540	-54	-87	-32	-16148	-460	-1464	185	-171	146	127	125	8
-7312	-2936	13964	-93	123	-182	-16408	848	-2504	65	-17	145	-16056	2488	-1520	94	-33	20	-8532	2220	14396	133	-61	-178	-15524	984	-4596	52	-66	-37	-16200	-436	-1256	68	-149	141	127	127	8
-7212	-2960	14048	-84	118	-190	-16532	820	-2532	47	-11	120	-16076	2512	-1612	82	-40	3	-8480	2220	14236	111	-61	-159	-15580	1036	-4448	8	-38	-57	-16224	-504	-1272	10	-162	157	127	126	8
-7304	-2960	13912	-111	111	-181	-16472	852	-2584	75	-36	89	-16120	2376	-1736	167	-48	25	-8536	2260	14296	119	-18	-167	-15580	980	-4448	-34	-78	-61	-16192	-464	-1096	-115	-229	182	127	127	8
-7364	-2968	13960	-87	148	-187	-16432	836	-2676	68	8	110	-16092	2416	-1600	155	-107	-5	-8508	2264	14372	133	-88	-132	-15652	996	-4520	-33	-50	-86	-16192	-492	-1184	89	-196	164	127	128	8
-7212	-3080	13920	-52	105	-228	-16504	692	-2508	204	-13	132	-16160	2360	-1768	237	-91	10	-8500	2244	14396	145	-31	-183	-15540	936	-4516	21	-44	-30	-16208	-448	-1316	156	-170	215	127	127	8
-7324	-2964	13976	-102	156	-198	-16428	932	-2592	108	-16	119	-16164	2504	-1768	201	-52	28	-8508	2288	14220	104	-23	-151	-15524	1024	-4444	8	-11	-57	-16164	-440	-1288	41	-180	176	127	129	8
-7268	-2984	14000	-55	149	-204	-16488	812	-2616	76	-45	143	-16044	2560	-1808	223	-65	13	-8552	2292	14380	108	-38	-161	-15576	1000	-4484	-4	-20	-74	-16268	-388	-1244	23	-194	211	127	127	8
-7272	-2996	13868	-115	157	-202	-16456	856	-2600	81	-55	122	-16112	2492	-1756	175	-1	-11	-8616	2324	14264	133	-27	-138	-15536	1108	-4556	-19	36	-47	-16208	-380	-1344	-1	-232	161	127	120	8
-7260	-2944	13892	-103	145	-195	-16432	832	-2640	20	-79	152	-16060	2560	-1716	170	-33	8	-8492	2416	14320	78	-40	-205	-15688	1084	-4584	-42	-14	-30	-16264	-520	-1384	122	-202	165	127	126	8
-7276	-2992	13896	-109	160	-220	-16488	904	-2568	26	-84	152	-16040	2484	-1572	165	-64	18	-8472	2244	14228	128	-4	-170	-15508	916	-4664	113	-91	-14	-16136	-488	-1200	-35	-189	188	127	128	8
-7224	-3020	14048	-124	134	-227	-16524	780	-2560	35	-102	161	-16120	2404	-1532	124	-75	17	-8560	2228	14296	149	-8	-152	-15576	1080	-4552	48	-53	-12	-16204	-404	-1244	47	-83	173	127	126	8
-7324	-2936	13872	-96	132	-209	-16476	864	-2332	62	-51	146	-16152	2492	-1520	156	-57	-24	-8520	2268	14276	122	-7	-154	-15624	992	-4520	-82	-54	-61	-16324	-552	-1284	-94	-175	147	127	125	8
-7260	-2984	13872	-137	171	-191	-16456	800	-2480	56	-39	119	-16156	2448	-1500	176	-64	32	-8516	2304	14296	124	-37	-133	-15572	940	-4584	-58	-61	-30	-16276	-508	-1264	-96	-149	183	127	127	8
-7268	-2932	13992	-122	140	-201	-16440	864	-2336	155	-86	140	-16156	2440	-1568	227	-39	22	-8484	2276	14328	150	-31	-175	-15560	956	-4556	-3	-75	-28	-16196	-520	-1244	49	-200	201	127	126	8
-7288	-2988	13928	-98	180	-184	-16436	868	-2528	131	3	137	-16048	2424	-1468	256	-52	17	-8548	2276	14272	156	-55	-198	-15540	1052	-4500	85	-51	-23	-16264	-488	-1224	179	-136	193	127	127	8
-7308	-3044	13968	-64	126	-214	-16436	848	-2528	180	-19	155	-16124	2432	-1608	255	-54	30	-8556	2208	14332	121	-19	-141	-15552	964	-4516	65	-76	-19	-16212	-500	-1356	258	-152	169	127	126	8
-7324	-2940	14032	-49	117	-203	-16460	776	-2476	200	-18	145	-16056	2548	-1624	285	-57	36	-8552	2284	14316	104	-53	-163	-15640	1012	-4524	143	-98	-65	-16200	-496	-1200	232	-163	202	127	126	8
-7272	-2948	13956	-54	153	-201	-16440	824	-2536	179	-8	113	-16104	2532	-1692	346	-35	47	-8460	2288	14268	144	-34	-150	-15616	976	-4428	140	-64	-38	-16196	-420	-1248	202	-200	202	127	128	8
-7300	-3000	13904	-100	118	-198	-16460	836	-2644	219	7	134	-16172	2468	-1624	322	-12	38	-8504	2252	14432	132	-39	-162	-15588	1032	-4424	122	-90	-32	-16204	-396	-1160	185	-194	199	127	126	8
-7280	-2976	13896	-100	142	-219	-16496	944	-2568	203	-12	124	-16128	2560	-1636	370	10	35	-8492	2328	14484	158	-65	-178	-15628	972	-4412	54	-50	-39	-16316	-384	-1144	133	-266	152	127	126	8
-7256	-2892	13896	-58	118	-218	-16444	856	-2616	228	-23	146	-16148	2572	-1624	351	-12	60	-8504	2408	14312	131	4	-133	-15660	1036	-4520	70	-58	-26	-16252	-404	-1308	250	-200	176	127	123	8
-7276	-2936	13920	-90	120	-227	-16376	864	-2416	196	-15	144	-16088	2548	-1572	305	-42	33	-8472	2284	14308	114	-23	-180	-15540	1044	-4564	146	-58	-16	-16196	-428	-1376	202	-243	173	127	125	8
-7300	-2924	13972	-70	111	-202	-16480	756	-2520	117	38	126	-16156	2564	-1532	296	-56	20	-8540	2252	14312	108	-48	-159	-15616	1016	-4492	72	-25	-47	-16188	-380	-1248	135	-233	157	127	127	8
-7292	-3004	13888	-75	146	-214	-16452	876	-2604	114	-22	133	-16024	2596	-1764	223	-81	-29	-8520	2276	14256	94	-71	-139	-15612	984	-4576	62	-42	-46	-16212	-340	-1196	62	-214	174	127	124	8
